BEGIN_SCAN_DATA
	FORMAT=CC-Export V1.9                  
	FILE_CREATION_DATE=15-Aug-2018 12:30:23
	LAST_MODIFIED=15-Aug-2018 12:30:23
	BEGIN_SCAN  1
		TASK_NAME=tba PDD Profiles
		PROGRAM=tbaScan
		MEAS_DATE=15-Aug-2018 12:28:22
		LINAC=VARIAN PT
		MODALITY=P
		ISOCENTER=2500.00
		INPLANE_AXIS=Inplane
		CROSSPLANE_AXIS=Crossplane
		DEPTH_AXIS=Depth
		INPLANE_AXIS_DIR=GUN_TARGET
		CROSSPLANE_AXIS_DIR=LEFT_RIGHT
		DEPTH_AXIS_DIR=UP_DOWN
		ENERGY=100.00
		NOMINAL_DMAX=80.00
		SSD=2500.00
		SCD=1000.00
		BLOCK=0
		WEDGE_ANGLE=0.00
		FIELD_INPLANE=100.00
		FIELD_CROSSPLANE=100.00
		FIELD_TYPE=RECTANGULAR
		GANTRY=270.00
		GANTRY_UPRIGHT_POSITION=0
		GANTRY_ROTATION=CW
		COLL_ANGLE=0.00
		COLL_OFFSET_INPLANE=0.00
		COLL_OFFSET_CROSSPLANE=0.00
		SCAN_DEVICE=MP3
		SCAN_DEVICE_SETUP=BARA_LEFT_RIGHT
		ELECTROMETER=TANDEM_XDR
		RANGE_FIELD=HIGH
		RANGE_REFERENCE=AUTO
		DETECTOR=PLANE_PARALLEL_CHAMBER
		DETECTOR_RADIUS=0.00
		DETECTOR_NAME=PTW 34070 Bragg-Peak
		DETECTOR_SN=0000
		DETECTOR_CALIBRATION=1100000000.00
		DETECTOR_IS_CALIBRATED=0
		DETECTOR_REFERENCE=PLANE_PARALLEL_CHAMBER
		DETECTOR_REFERENCE_RADIUS=0.00
		DETECTOR_REFERENCE_NAME=PTW 34070 Bragg-Peak
		DETECTOR_REFERENCE_SN=0000
		DETECTOR_REFERENCE_IS_CALIBRATED=0
		DETECTOR_REFERENCE_CALIBRATION=1100000000.00
		DETECTOR_HV=400.0
		DETECTOR_REFERENCE_HV=400.0
		FILTER=FF
		REF_FIELD_DEPTH=0.00
		REF_FIELD_DEFINED=ISOCENTER
		REF_FIELD_INPLANE=40.00
		REF_FIELD_CROSSPLANE=40.00
		REF_SCAN_POSITIONS=0.00;1.00;2.00;3.00;4.00;5.00;6.00;7.00;8.00;9.00;10.00;11.00;12.00;13.00;14.00;15.00;16.00;17.00;18.00;19.00;20.00;21.00;22.00;23.00;24.00;25.00;26.00;27.00;28.00;29.00;30.00;31.00;32.00;33.00;34.00;35.00;36.00;37.00;38.00;39.00;40.00;41.00;42.00;43.00;44.00;45.00;46.00;47.00;48.00;49.00;50.00;51.00;52.00;53.00;54.00;55.00;56.00;57.00;58.00;59.00;60.00;
		SCAN_CURVETYPE=PDD
		SCAN_OFFAXIS_INPLANE=0.00
		SCAN_OFFAXIS_CROSSPLANE=0.00
		SCAN_ANGLE=0.00
		SCAN_DIAGONAL=NOT_DIAGONAL
		SCAN_DIRECTION=NEGATIVE
		MEAS_MEDIUM=WATER
		MEAS_PRESET=REFERENCE_DOSEMETER
		MEAS_TIME=0.100
		MEAS_UNIT=A.U.
		SCAN_SPEEDS=50.00; 1.00;150.00; 16.00;999.00; 50.00;
		DELAY_TIMES=50.00; 0.800;150.00; 0.400;999.90; 0.000;
		PRESSURE=1013.25
		TEMPERATURE=20.00
		NORM_TEMPERATURE=20.00
		CORRECTION_FACTOR=1.0000
		EXPECTED_MAX_DOSE_RATE=8.00
		BEGIN_DATA
			0		0.362
			0.195		0.362
			0.389		0.362
			0.584		0.362
			0.779		0.362
			0.973		0.362
			1.168		0.362
			1.363		0.361
			1.557		0.361
			1.752		0.361
			1.946		0.361
			2.141		0.361
			2.336		0.361
			2.53		0.361
			2.725		0.361
			2.92		0.361
			3.114		0.361
			3.309		0.361
			3.504		0.361
			3.698		0.361
			3.893		0.361
			4.088		0.361
			4.282		0.361
			4.477		0.361
			4.672		0.361
			4.866		0.361
			5.061		0.361
			5.256		0.361
			5.45		0.361
			5.645		0.361
			5.839		0.361
			6.034		0.361
			6.229		0.361
			6.423		0.361
			6.618		0.361
			6.813		0.362
			7.007		0.362
			7.202		0.362
			7.397		0.362
			7.591		0.362
			7.786		0.362
			7.981		0.362
			8.175		0.362
			8.37		0.362
			8.565		0.363
			8.759		0.363
			8.954		0.363
			9.149		0.363
			9.343		0.363
			9.538		0.363
			9.732		0.364
			9.927		0.364
			10.122		0.364
			10.316		0.364
			10.511		0.364
			10.706		0.365
			10.9		0.365
			11.095		0.365
			11.29		0.365
			11.484		0.365
			11.679		0.366
			11.874		0.366
			12.068		0.366
			12.263		0.366
			12.458		0.366
			12.652		0.367
			12.847		0.367
			13.042		0.367
			13.236		0.367
			13.431		0.368
			13.625		0.368
			13.82		0.368
			14.015		0.369
			14.209		0.369
			14.404		0.369
			14.599		0.369
			14.793		0.37
			14.988		0.37
			15.183		0.37
			15.377		0.371
			15.572		0.371
			15.767		0.371
			15.961		0.372
			16.156		0.372
			16.351		0.372
			16.545		0.373
			16.74		0.373
			16.934		0.373
			17.129		0.374
			17.324		0.374
			17.518		0.374
			17.713		0.375
			17.908		0.375
			18.102		0.376
			18.297		0.376
			18.492		0.376
			18.686		0.377
			18.881		0.377
			19.076		0.378
			19.27		0.378
			19.465		0.378
			19.66		0.379
			19.854		0.379
			20.049		0.38
			20.243		0.38
			20.438		0.381
			20.633		0.381
			20.827		0.382
			21.022		0.382
			21.217		0.383
			21.411		0.383
			21.606		0.384
			21.801		0.384
			21.995		0.384
			22.19		0.385
			22.385		0.386
			22.579		0.386
			22.774		0.387
			22.969		0.387
			23.163		0.388
			23.358		0.388
			23.553		0.389
			23.747		0.389
			23.942		0.39
			24.136		0.39
			24.331		0.391
			24.526		0.392
			24.721		0.392
			24.915		0.393
			25.11		0.393
			25.304		0.394
			25.499		0.395
			25.694		0.395
			25.888		0.396
			26.083		0.396
			26.278		0.397
			26.472		0.398
			26.667		0.398
			26.862		0.399
			27.056		0.4
			27.251		0.4
			27.446		0.401
			27.64		0.402
			27.835		0.402
			28.029		0.403
			28.224		0.404
			28.419		0.404
			28.613		0.405
			28.808		0.406
			29.003		0.407
			29.197		0.407
			29.392		0.408
			29.587		0.409
			29.781		0.41
			29.976		0.41
			30.171		0.411
			30.365		0.412
			30.56		0.413
			30.755		0.413
			30.949		0.414
			31.144		0.415
			31.338		0.416
			31.533		0.417
			31.728		0.417
			31.923		0.418
			32.117		0.419
			32.312		0.42
			32.506		0.421
			32.701		0.421
			32.896		0.422
			33.09		0.423
			33.285		0.424
			33.48		0.425
			33.674		0.426
			33.869		0.427
			34.064		0.428
			34.258		0.428
			34.453		0.429
			34.648		0.43
			34.842		0.431
			35.037		0.432
			35.231		0.433
			35.426		0.434
			35.621		0.435
			35.815		0.436
			36.01		0.437
			36.205		0.438
			36.399		0.439
			36.594		0.44
			36.789		0.441
			36.983		0.442
			37.178		0.443
			37.373		0.443
			37.567		0.444
			37.762		0.445
			37.957		0.446
			38.151		0.448
			38.346		0.449
			38.541		0.45
			38.735		0.451
			38.93		0.452
			39.125		0.453
			39.319		0.454
			39.514		0.455
			39.708		0.456
			39.903		0.457
			40.098		0.458
			40.292		0.459
			40.487		0.46
			40.682		0.461
			40.876		0.462
			41.071		0.463
			41.266		0.465
			41.46		0.466
			41.655		0.467
			41.85		0.468
			42.044		0.469
			42.239		0.47
			42.433		0.471
			42.628		0.473
			42.823		0.474
			43.018		0.475
			43.212		0.476
			43.407		0.477
			43.601		0.478
			43.796		0.48
			43.991		0.481
			44.185		0.482
			44.38		0.483
			44.575		0.484
			44.769		0.486
			44.964		0.487
			45.159		0.488
			45.353		0.489
			45.548		0.491
			45.743		0.492
			45.937		0.493
			46.132		0.494
			46.326		0.496
			46.521		0.497
			46.716		0.498
			46.91		0.5
			47.105		0.501
			47.3		0.502
			47.494		0.504
			47.689		0.505
			47.884		0.506
			48.078		0.508
			48.273		0.509
			48.468		0.51
			48.662		0.512
			48.857		0.513
			49.052		0.514
			49.246		0.516
			49.441		0.517
			49.636		0.518
			49.83		0.52
			50.025		0.521
			50.22		0.523
			50.414		0.524
			50.609		0.526
			50.804		0.527
			50.998		0.528
			51.193		0.53
			51.387		0.531
			51.582		0.533
			51.777		0.534
			51.971		0.536
			52.166		0.537
			52.361		0.539
			52.555		0.54
			52.75		0.542
			52.945		0.544
			53.139		0.545
			53.334		0.547
			53.529		0.548
			53.723		0.55
			53.918		0.552
			54.112		0.553
			54.307		0.555
			54.502		0.556
			54.696		0.558
			54.891		0.56
			55.086		0.562
			55.28		0.563
			55.475		0.565
			55.67		0.567
			55.864		0.568
			56.059		0.57
			56.254		0.572
			56.448		0.574
			56.643		0.576
			56.838		0.578
			57.032		0.58
			57.227		0.581
			57.422		0.583
			57.616		0.585
			57.811		0.587
			58.006		0.589
			58.2		0.591
			58.395		0.593
			58.589		0.596
			58.784		0.598
			58.979		0.6
			59.173		0.602
			59.368		0.604
			59.563		0.607
			59.757		0.609
			59.952		0.611
			60.147		0.614
			60.341		0.616
			60.536		0.619
			60.731		0.621
			60.925		0.624
			61.12		0.627
			61.314		0.629
			61.509		0.632
			61.704		0.635
			61.898		0.638
			62.093		0.641
			62.288		0.644
			62.482		0.647
			62.677		0.651
			62.872		0.654
			63.066		0.657
			63.261		0.661
			63.456		0.665
			63.65		0.668
			63.845		0.672
			64.04		0.676
			64.234		0.68
			64.429		0.684
			64.624		0.689
			64.818		0.693
			65.013		0.698
			65.207		0.703
			65.402		0.707
			65.597		0.713
			65.791		0.718
			65.986		0.723
			66.181		0.729
			66.375		0.735
			66.57		0.741
			66.765		0.747
			66.959		0.753
			67.154		0.76
			67.349		0.767
			67.543		0.774
			67.738		0.782
			67.933		0.789
			68.127		0.797
			68.322		0.806
			68.517		0.814
			68.711		0.823
			68.906		0.832
			69.101		0.842
			69.295		0.852
			69.49		0.862
			69.684		0.873
			69.879		0.884
			70.074		0.896
			70.268		0.908
			70.463		0.921
			70.658		0.934
			70.852		0.948
			71.047		0.963
			71.242		0.978
			71.436		0.994
			71.631		1.011
			71.826		1.029
			72.02		1.048
			72.215		1.068
			72.41		1.089
			72.604		1.112
			72.799		1.135
			72.993		1.16
			73.188		1.185
			73.383		1.211
			73.577		1.238
			73.772		1.265
			73.967		1.291
			74.161		1.317
			74.356		1.342
			74.551		1.364
			74.745		1.384
			74.94		1.4
			75.135		1.411
			75.329		1.418
			75.524		1.418
			75.719		1.412
			75.913		1.399
			76.108		1.378
			76.302		1.35
			76.497		1.314
			76.692		1.27
			76.886		1.219
			77.081		1.162
			77.276		1.099
			77.47		1.032
			77.665		0.961
			77.86		0.888
			78.054		0.814
			78.249		0.739
			78.444		0.666
			78.638		0.595
			78.833		0.528
			79.028		0.463
			79.222		0.404
			79.417		0.349
			79.612		0.299
			79.806		0.254
			80.001		0.215
			80.196		0.18
			80.39		0.15
			80.585		0.124
			80.78		0.102
			80.974		0.084
			81.169		0.068
			81.363		0.056
			81.558		0.045
			81.753		0.037
			81.947		0.03
			82.142		0.025
			82.337		0.02
			82.531		0.017
			82.726		0.014
			82.921		0.012
			83.115		0.01
			83.31		0.009
			83.505		0.007
			83.699		0.006
			83.894		0.006
			84.089		0.005
			84.283		0.004
			84.478		0.004
			84.672		0.003
			84.867		0.003
			85.062		0.003
			85.256		0.002
			85.451		0.002
			85.646		0.002
			85.84		0.002
			86.035		0.001
			86.23		0.001
			86.424		0.001
			86.619		0.001
			86.814		0.001
			87.008		0.001
			87.203		0.001
			87.397		0
			87.592		0
			87.787		0
			87.981		0
			88.176		0
			88.371		0
			88.565		0
			88.76		0
			88.955		0
			89.149		0
			89.344		0
			89.539		0
			89.733		0
			89.928		0
			90.123		0
			90.317		0
			90.512		0
			90.707		0
			90.901		0
			91.096		0
			91.29		0
			91.485		0
			91.68		0
			91.874		0
			92.069		0
			92.264		0
			92.458		0
			92.653		0
			92.848		0
			93.042		0
			93.237		0
			93.432		0
			93.626		0
			93.821		0
			94.016		0
			94.21		0
			94.405		0
			94.6		0
			94.794		0
			94.989		0
			95.184		0
			95.378		0
			95.573		0
			95.768		0
			95.962		0
			96.157		0
			96.351		0
			96.546		0
			96.741		0
			96.935		0
			97.13		0
		END_DATA
	END_SCAN  1
END_SCAN_DATA
