BEGIN_SCAN_DATA
	FORMAT=CC-Export V1.9                  
	FILE_CREATION_DATE=15-Aug-2018 12:26:11
	LAST_MODIFIED=15-Aug-2018 12:26:11
	BEGIN_SCAN  1
		TASK_NAME=tba PDD Profiles
		PROGRAM=tbaScan
		MEAS_DATE=15-Aug-2018 12:24:28
		LINAC=VARIAN PT
		MODALITY=P
		ISOCENTER=2500.00
		INPLANE_AXIS=Inplane
		CROSSPLANE_AXIS=Crossplane
		DEPTH_AXIS=Depth
		INPLANE_AXIS_DIR=GUN_TARGET
		CROSSPLANE_AXIS_DIR=LEFT_RIGHT
		DEPTH_AXIS_DIR=UP_DOWN
		ENERGY=105.00
		NOMINAL_DMAX=120.00
		SSD=2500.00
		SCD=1000.00
		BLOCK=0
		WEDGE_ANGLE=0.00
		FIELD_INPLANE=100.00
		FIELD_CROSSPLANE=100.00
		FIELD_TYPE=RECTANGULAR
		GANTRY=270.00
		GANTRY_UPRIGHT_POSITION=0
		GANTRY_ROTATION=CW
		COLL_ANGLE=0.00
		COLL_OFFSET_INPLANE=0.00
		COLL_OFFSET_CROSSPLANE=0.00
		SCAN_DEVICE=MP3
		SCAN_DEVICE_SETUP=BARA_LEFT_RIGHT
		ELECTROMETER=TANDEM_XDR
		RANGE_FIELD=HIGH
		RANGE_REFERENCE=AUTO
		DETECTOR=PLANE_PARALLEL_CHAMBER
		DETECTOR_RADIUS=0.00
		DETECTOR_NAME=PTW 34070 Bragg-Peak
		DETECTOR_SN=0000
		DETECTOR_CALIBRATION=1100000000.00
		DETECTOR_IS_CALIBRATED=0
		DETECTOR_REFERENCE=PLANE_PARALLEL_CHAMBER
		DETECTOR_REFERENCE_RADIUS=0.00
		DETECTOR_REFERENCE_NAME=PTW 34070 Bragg-Peak
		DETECTOR_REFERENCE_SN=0000
		DETECTOR_REFERENCE_IS_CALIBRATED=0
		DETECTOR_REFERENCE_CALIBRATION=1100000000.00
		DETECTOR_HV=400.0
		DETECTOR_REFERENCE_HV=400.0
		FILTER=FF
		REF_FIELD_DEPTH=0.00
		REF_FIELD_DEFINED=ISOCENTER
		REF_FIELD_INPLANE=40.00
		REF_FIELD_CROSSPLANE=40.00
		REF_SCAN_POSITIONS=0.00;1.00;2.00;3.00;4.00;5.00;6.00;7.00;8.00;9.00;10.00;11.00;12.00;13.00;14.00;15.00;16.00;17.00;18.00;19.00;20.00;21.00;22.00;23.00;24.00;25.00;26.00;27.00;28.00;29.00;30.00;31.00;32.00;33.00;34.00;35.00;36.00;37.00;38.00;39.00;40.00;41.00;42.00;43.00;44.00;45.00;46.00;47.00;48.00;49.00;50.00;51.00;52.00;53.00;54.00;55.00;56.00;57.00;58.00;59.00;60.00;61.00;62.00;63.00;64.00;65.00;66.00;67.00;68.00;69.00;70.00;71.00;72.00;73.00;74.00;75.00;76.00;77.00;78.00;79.00;80.00;81.00;82.00;83.00;84.00;85.00;86.00;87.00;88.00;89.00;90.00;91.00;92.00;93.00;94.00;95.00;96.00;97.00;98.00;99.00;100.00;101.00;102.00;103.00;104.00;105.00;106.00;107.00;108.00;109.00;110.00;
		SCAN_CURVETYPE=PDD
		SCAN_OFFAXIS_INPLANE=0.00
		SCAN_OFFAXIS_CROSSPLANE=0.00
		SCAN_ANGLE=0.00
		SCAN_DIAGONAL=NOT_DIAGONAL
		SCAN_DIRECTION=NEGATIVE
		MEAS_MEDIUM=WATER
		MEAS_PRESET=REFERENCE_DOSEMETER
		MEAS_TIME=0.100
		MEAS_UNIT=A.U.
		SCAN_SPEEDS=50.00; 1.00;150.00; 16.00;999.00; 50.00;
		DELAY_TIMES=50.00; 0.800;150.00; 0.400;999.90; 0.000;
		PRESSURE=1013.25
		TEMPERATURE=20.00
		NORM_TEMPERATURE=20.00
		CORRECTION_FACTOR=1.0000
		EXPECTED_MAX_DOSE_RATE=8.00
		BEGIN_DATA
			0		0.363
			0.217		0.363
			0.433		0.363
			0.65		0.362
			0.867		0.362
			1.083		0.362
			1.3		0.362
			1.517		0.362
			1.734		0.362
			1.95		0.362
			2.167		0.362
			2.384		0.362
			2.6		0.362
			2.817		0.362
			3.034		0.362
			3.25		0.362
			3.467		0.361
			3.684		0.361
			3.9		0.361
			4.117		0.361
			4.334		0.361
			4.551		0.361
			4.767		0.361
			4.984		0.361
			5.201		0.361
			5.417		0.362
			5.634		0.362
			5.851		0.362
			6.067		0.362
			6.284		0.362
			6.501		0.362
			6.717		0.362
			6.934		0.362
			7.151		0.362
			7.368		0.362
			7.584		0.362
			7.801		0.362
			8.018		0.362
			8.234		0.362
			8.451		0.363
			8.668		0.363
			8.884		0.363
			9.101		0.363
			9.318		0.363
			9.535		0.363
			9.751		0.363
			9.968		0.364
			10.185		0.364
			10.401		0.364
			10.618		0.364
			10.835		0.364
			11.051		0.364
			11.268		0.365
			11.485		0.365
			11.701		0.365
			11.918		0.365
			12.135		0.365
			12.351		0.366
			12.568		0.366
			12.785		0.366
			13.002		0.366
			13.218		0.366
			13.435		0.367
			13.652		0.367
			13.868		0.367
			14.085		0.367
			14.302		0.368
			14.519		0.368
			14.735		0.368
			14.952		0.368
			15.168		0.369
			15.385		0.369
			15.602		0.369
			15.819		0.37
			16.035		0.37
			16.252		0.37
			16.469		0.37
			16.685		0.371
			16.902		0.371
			17.119		0.371
			17.336		0.372
			17.552		0.372
			17.769		0.372
			17.986		0.373
			18.202		0.373
			18.419		0.373
			18.636		0.374
			18.852		0.374
			19.069		0.374
			19.286		0.375
			19.502		0.375
			19.719		0.376
			19.936		0.376
			20.153		0.376
			20.369		0.377
			20.586		0.377
			20.803		0.378
			21.019		0.378
			21.236		0.378
			21.453		0.379
			21.669		0.379
			21.886		0.38
			22.103		0.38
			22.319		0.381
			22.536		0.381
			22.753		0.382
			22.969		0.382
			23.186		0.383
			23.403		0.383
			23.62		0.384
			23.836		0.384
			24.053		0.385
			24.27		0.385
			24.486		0.386
			24.703		0.386
			24.92		0.387
			25.136		0.387
			25.353		0.388
			25.57		0.388
			25.787		0.389
			26.003		0.389
			26.22		0.39
			26.437		0.391
			26.653		0.391
			26.87		0.392
			27.087		0.392
			27.303		0.393
			27.52		0.393
			27.737		0.394
			27.953		0.395
			28.17		0.395
			28.387		0.396
			28.604		0.397
			28.82		0.397
			29.037		0.398
			29.254		0.399
			29.47		0.399
			29.687		0.4
			29.904		0.401
			30.12		0.401
			30.337		0.402
			30.554		0.403
			30.771		0.403
			30.987		0.404
			31.204		0.405
			31.42		0.405
			31.637		0.406
			31.854		0.407
			32.071		0.408
			32.287		0.408
			32.504		0.409
			32.721		0.41
			32.937		0.411
			33.154		0.411
			33.371		0.412
			33.588		0.413
			33.804		0.414
			34.021		0.415
			34.238		0.415
			34.454		0.416
			34.671		0.417
			34.888		0.418
			35.104		0.419
			35.321		0.419
			35.538		0.42
			35.754		0.421
			35.971		0.422
			36.188		0.423
			36.404		0.424
			36.621		0.425
			36.838		0.425
			37.055		0.426
			37.271		0.427
			37.488		0.428
			37.705		0.429
			37.921		0.43
			38.138		0.431
			38.355		0.432
			38.571		0.433
			38.788		0.434
			39.005		0.435
			39.222		0.436
			39.438		0.437
			39.655		0.437
			39.872		0.438
			40.088		0.439
			40.305		0.44
			40.522		0.441
			40.738		0.442
			40.955		0.443
			41.172		0.444
			41.388		0.445
			41.605		0.446
			41.822		0.447
			42.039		0.448
			42.255		0.45
			42.472		0.451
			42.689		0.452
			42.905		0.453
			43.122		0.454
			43.339		0.455
			43.555		0.456
			43.772		0.457
			43.989		0.458
			44.206		0.459
			44.422		0.46
			44.639		0.461
			44.855		0.463
			45.072		0.464
			45.289		0.465
			45.506		0.466
			45.722		0.467
			45.939		0.468
			46.156		0.469
			46.372		0.471
			46.589		0.472
			46.806		0.473
			47.022		0.474
			47.239		0.475
			47.456		0.476
			47.673		0.478
			47.889		0.479
			48.106		0.48
			48.323		0.481
			48.539		0.482
			48.756		0.484
			48.973		0.485
			49.189		0.486
			49.406		0.487
			49.623		0.489
			49.84		0.49
			50.056		0.491
			50.273		0.493
			50.49		0.494
			50.706		0.495
			50.923		0.496
			51.14		0.498
			51.356		0.499
			51.573		0.5
			51.79		0.502
			52.006		0.503
			52.223		0.504
			52.44		0.506
			52.657		0.507
			52.873		0.508
			53.09		0.51
			53.307		0.511
			53.523		0.512
			53.74		0.514
			53.957		0.515
			54.173		0.517
			54.39		0.518
			54.607		0.52
			54.823		0.521
			55.04		0.522
			55.257		0.524
			55.473		0.525
			55.69		0.527
			55.907		0.528
			56.124		0.53
			56.34		0.531
			56.557		0.533
			56.774		0.534
			56.99		0.536
			57.207		0.537
			57.424		0.539
			57.64		0.54
			57.857		0.542
			58.074		0.544
			58.291		0.545
			58.507		0.547
			58.724		0.548
			58.941		0.55
			59.157		0.552
			59.374		0.553
			59.591		0.555
			59.807		0.557
			60.024		0.558
			60.241		0.56
			60.458		0.562
			60.674		0.564
			60.891		0.565
			61.107		0.567
			61.324		0.569
			61.541		0.571
			61.758		0.573
			61.974		0.574
			62.191		0.576
			62.408		0.578
			62.624		0.58
			62.841		0.582
			63.058		0.584
			63.275		0.586
			63.491		0.588
			63.708		0.59
			63.924		0.592
			64.141		0.595
			64.358		0.597
			64.575		0.599
			64.791		0.601
			65.008		0.604
			65.225		0.606
			65.441		0.608
			65.658		0.611
			65.875		0.613
			66.091		0.616
			66.308		0.618
			66.525		0.621
			66.742		0.624
			66.958		0.627
			67.175		0.629
			67.392		0.632
			67.608		0.635
			67.825		0.638
			68.042		0.641
			68.258		0.645
			68.475		0.648
			68.692		0.651
			68.909		0.655
			69.125		0.659
			69.342		0.662
			69.559		0.666
			69.775		0.67
			69.992		0.674
			70.209		0.678
			70.425		0.683
			70.642		0.687
			70.859		0.692
			71.075		0.696
			71.292		0.701
			71.509		0.706
			71.726		0.712
			71.942		0.717
			72.159		0.723
			72.376		0.729
			72.592		0.735
			72.809		0.741
			73.026		0.748
			73.242		0.755
			73.459		0.762
			73.676		0.769
			73.892		0.777
			74.109		0.785
			74.326		0.793
			74.543		0.801
			74.759		0.81
			74.976		0.819
			75.193		0.829
			75.409		0.839
			75.626		0.849
			75.843		0.86
			76.059		0.871
			76.276		0.883
			76.493		0.895
			76.71		0.908
			76.926		0.921
			77.143		0.935
			77.359		0.949
			77.576		0.965
			77.793		0.981
			78.01		0.998
			78.226		1.016
			78.443		1.035
			78.66		1.055
			78.876		1.076
			79.093		1.098
			79.31		1.122
			79.526		1.147
			79.743		1.173
			79.96		1.2
			80.177		1.227
			80.393		1.256
			80.61		1.284
			80.827		1.311
			81.043		1.337
			81.26		1.361
			81.477		1.383
			81.693		1.4
			81.91		1.413
			82.127		1.419
			82.343		1.42
			82.56		1.413
			82.777		1.397
			82.994		1.374
			83.21		1.342
			83.427		1.301
			83.644		1.252
			83.86		1.196
			84.077		1.133
			84.294		1.064
			84.51		0.99
			84.727		0.914
			84.944		0.835
			85.16		0.757
			85.377		0.679
			85.594		0.604
			85.811		0.532
			86.027		0.464
			86.244		0.401
			86.461		0.344
			86.677		0.292
			86.894		0.245
			87.111		0.205
			87.327		0.17
			87.544		0.14
			87.761		0.114
			87.978		0.093
			88.194		0.075
			88.411		0.06
			88.628		0.049
			88.844		0.039
			89.061		0.032
			89.278		0.026
			89.494		0.021
			89.711		0.017
			89.928		0.014
			90.144		0.012
			90.361		0.01
			90.578		0.008
			90.795		0.007
			91.011		0.006
			91.228		0.005
			91.445		0.004
			91.661		0.004
			91.878		0.003
			92.095		0.003
			92.311		0.002
			92.528		0.002
			92.745		0.002
			92.962		0.002
			93.178		0.001
			93.395		0.001
			93.612		0.001
			93.828		0.001
			94.045		0.001
			94.262		0.001
			94.478		0.001
			94.695		0
			94.912		0
			95.128		0
			95.345		0
			95.562		0
			95.779		0
			95.995		0
			96.212		0
			96.429		0
			96.645		0
			96.862		0
			97.079		0
			97.295		0
			97.512		0
			97.729		0
			97.945		0
			98.162		0
			98.379		0
			98.595		0
			98.812		0
			99.029		0
			99.246		0
			99.462		0
			99.679		0
			99.896		0
			100.112		0
			100.329		0
			100.546		0
			100.762		0
			100.979		0
			101.196		0
			101.413		0
			101.629		0
			101.846		0
			102.063		0
			102.279		0
			102.496		0
			102.713		0
			102.929		0
			103.146		0
			103.363		0
			103.579		0
			103.796		0
			104.013		0
			104.23		0
			104.446		0
			104.663		0
			104.88		0
			105.096		0
			105.313		0
			105.53		0
			105.746		0
			105.963		0
			106.18		0
			106.396		0
			106.613		0
			106.83		0
			107.047		0
			107.263		0
			107.48		0
			107.697		0
			107.913		0
			108.13		0
		END_DATA
	END_SCAN  1
END_SCAN_DATA
