BEGIN_SCAN_DATA
	FORMAT=CC-Export V1.9                  
	FILE_CREATION_DATE=15-Aug-2018 12:26:11
	LAST_MODIFIED=15-Aug-2018 12:26:11
	BEGIN_SCAN  1
		TASK_NAME=tba PDD Profiles
		PROGRAM=tbaScan
		MEAS_DATE=15-Aug-2018 12:24:28
		LINAC=VARIAN PT
		MODALITY=P
		ISOCENTER=2500.00
		INPLANE_AXIS=Inplane
		CROSSPLANE_AXIS=Crossplane
		DEPTH_AXIS=Depth
		INPLANE_AXIS_DIR=GUN_TARGET
		CROSSPLANE_AXIS_DIR=LEFT_RIGHT
		DEPTH_AXIS_DIR=UP_DOWN
		ENERGY=110.00
		NOMINAL_DMAX=120.00
		SSD=2500.00
		SCD=1000.00
		BLOCK=0
		WEDGE_ANGLE=0.00
		FIELD_INPLANE=100.00
		FIELD_CROSSPLANE=100.00
		FIELD_TYPE=RECTANGULAR
		GANTRY=270.00
		GANTRY_UPRIGHT_POSITION=0
		GANTRY_ROTATION=CW
		COLL_ANGLE=0.00
		COLL_OFFSET_INPLANE=0.00
		COLL_OFFSET_CROSSPLANE=0.00
		SCAN_DEVICE=MP3
		SCAN_DEVICE_SETUP=BARA_LEFT_RIGHT
		ELECTROMETER=TANDEM_XDR
		RANGE_FIELD=HIGH
		RANGE_REFERENCE=AUTO
		DETECTOR=PLANE_PARALLEL_CHAMBER
		DETECTOR_RADIUS=0.00
		DETECTOR_NAME=PTW 34070 Bragg-Peak
		DETECTOR_SN=0000
		DETECTOR_CALIBRATION=1100000000.00
		DETECTOR_IS_CALIBRATED=0
		DETECTOR_REFERENCE=PLANE_PARALLEL_CHAMBER
		DETECTOR_REFERENCE_RADIUS=0.00
		DETECTOR_REFERENCE_NAME=PTW 34070 Bragg-Peak
		DETECTOR_REFERENCE_SN=0000
		DETECTOR_REFERENCE_IS_CALIBRATED=0
		DETECTOR_REFERENCE_CALIBRATION=1100000000.00
		DETECTOR_HV=400.0
		DETECTOR_REFERENCE_HV=400.0
		FILTER=FF
		REF_FIELD_DEPTH=0.00
		REF_FIELD_DEFINED=ISOCENTER
		REF_FIELD_INPLANE=40.00
		REF_FIELD_CROSSPLANE=40.00
		REF_SCAN_POSITIONS=0.00;1.00;2.00;3.00;4.00;5.00;6.00;7.00;8.00;9.00;10.00;11.00;12.00;13.00;14.00;15.00;16.00;17.00;18.00;19.00;20.00;21.00;22.00;23.00;24.00;25.00;26.00;27.00;28.00;29.00;30.00;31.00;32.00;33.00;34.00;35.00;36.00;37.00;38.00;39.00;40.00;41.00;42.00;43.00;44.00;45.00;46.00;47.00;48.00;49.00;50.00;51.00;52.00;53.00;54.00;55.00;56.00;57.00;58.00;59.00;60.00;61.00;62.00;63.00;64.00;65.00;66.00;67.00;68.00;69.00;70.00;71.00;72.00;73.00;74.00;75.00;76.00;77.00;78.00;79.00;80.00;81.00;82.00;83.00;84.00;85.00;86.00;87.00;88.00;89.00;90.00;91.00;92.00;93.00;94.00;95.00;96.00;97.00;98.00;99.00;100.00;101.00;102.00;103.00;104.00;105.00;106.00;107.00;108.00;109.00;110.00;
		SCAN_CURVETYPE=PDD
		SCAN_OFFAXIS_INPLANE=0.00
		SCAN_OFFAXIS_CROSSPLANE=0.00
		SCAN_ANGLE=0.00
		SCAN_DIAGONAL=NOT_DIAGONAL
		SCAN_DIRECTION=NEGATIVE
		MEAS_MEDIUM=WATER
		MEAS_PRESET=REFERENCE_DOSEMETER
		MEAS_TIME=0.100
		MEAS_UNIT=A.U.
		SCAN_SPEEDS=50.00; 1.00;150.00; 16.00;999.00; 50.00;
		DELAY_TIMES=50.00; 0.800;150.00; 0.400;999.90; 0.000;
		PRESSURE=1013.25
		TEMPERATURE=20.00
		NORM_TEMPERATURE=20.00
		CORRECTION_FACTOR=1.0000
		EXPECTED_MAX_DOSE_RATE=8.00
		BEGIN_DATA
			0		0.364
			0.227		0.363
			0.455		0.363
			0.682		0.363
			0.91		0.363
			1.137		0.363
			1.365		0.363
			1.592		0.363
			1.82		0.363
			2.047		0.363
			2.275		0.362
			2.502		0.362
			2.73		0.362
			2.957		0.362
			3.185		0.362
			3.412		0.362
			3.64		0.362
			3.867		0.362
			4.095		0.362
			4.322		0.362
			4.55		0.362
			4.777		0.362
			5.005		0.362
			5.232		0.362
			5.46		0.362
			5.687		0.362
			5.915		0.362
			6.142		0.362
			6.37		0.362
			6.597		0.362
			6.825		0.362
			7.052		0.362
			7.28		0.362
			7.507		0.362
			7.735		0.363
			7.962		0.363
			8.19		0.363
			8.417		0.363
			8.645		0.363
			8.872		0.363
			9.1		0.363
			9.327		0.363
			9.555		0.363
			9.782		0.363
			10.01		0.364
			10.237		0.364
			10.465		0.364
			10.692		0.364
			10.92		0.364
			11.147		0.364
			11.375		0.364
			11.602		0.365
			11.83		0.365
			12.057		0.365
			12.285		0.365
			12.512		0.365
			12.74		0.365
			12.967		0.366
			13.195		0.366
			13.422		0.366
			13.65		0.366
			13.877		0.366
			14.105		0.367
			14.332		0.367
			14.56		0.367
			14.787		0.367
			15.015		0.367
			15.242		0.368
			15.47		0.368
			15.697		0.368
			15.925		0.368
			16.152		0.369
			16.38		0.369
			16.607		0.369
			16.835		0.369
			17.062		0.37
			17.29		0.37
			17.517		0.37
			17.745		0.371
			17.972		0.371
			18.2		0.371
			18.427		0.371
			18.655		0.372
			18.882		0.372
			19.11		0.372
			19.337		0.373
			19.565		0.373
			19.792		0.373
			20.02		0.374
			20.247		0.374
			20.475		0.374
			20.702		0.375
			20.93		0.375
			21.157		0.375
			21.385		0.376
			21.612		0.376
			21.84		0.376
			22.067		0.377
			22.295		0.377
			22.522		0.378
			22.75		0.378
			22.977		0.378
			23.205		0.379
			23.432		0.379
			23.66		0.38
			23.887		0.38
			24.115		0.38
			24.342		0.381
			24.569		0.381
			24.797		0.382
			25.024		0.382
			25.252		0.383
			25.479		0.383
			25.707		0.384
			25.934		0.384
			26.162		0.385
			26.389		0.385
			26.617		0.386
			26.844		0.386
			27.072		0.387
			27.299		0.387
			27.527		0.388
			27.754		0.388
			27.982		0.389
			28.209		0.389
			28.437		0.39
			28.664		0.39
			28.892		0.391
			29.119		0.391
			29.347		0.392
			29.574		0.392
			29.802		0.393
			30.029		0.394
			30.257		0.394
			30.484		0.395
			30.712		0.395
			30.939		0.396
			31.167		0.397
			31.394		0.397
			31.622		0.398
			31.849		0.398
			32.077		0.399
			32.304		0.4
			32.532		0.4
			32.759		0.401
			32.987		0.402
			33.214		0.402
			33.442		0.403
			33.669		0.404
			33.897		0.404
			34.124		0.405
			34.352		0.406
			34.579		0.406
			34.807		0.407
			35.034		0.408
			35.262		0.409
			35.489		0.409
			35.717		0.41
			35.944		0.411
			36.172		0.411
			36.399		0.412
			36.627		0.413
			36.854		0.414
			37.082		0.414
			37.309		0.415
			37.537		0.416
			37.764		0.417
			37.992		0.418
			38.219		0.418
			38.447		0.419
			38.674		0.42
			38.902		0.421
			39.129		0.422
			39.357		0.422
			39.584		0.423
			39.812		0.424
			40.039		0.425
			40.267		0.426
			40.494		0.427
			40.722		0.427
			40.949		0.428
			41.177		0.429
			41.404		0.43
			41.632		0.431
			41.859		0.432
			42.087		0.433
			42.314		0.434
			42.542		0.435
			42.769		0.435
			42.997		0.436
			43.224		0.437
			43.451		0.438
			43.679		0.439
			43.907		0.44
			44.134		0.441
			44.361		0.442
			44.589		0.443
			44.817		0.444
			45.044		0.445
			45.271		0.446
			45.499		0.447
			45.727		0.448
			45.954		0.449
			46.181		0.45
			46.409		0.451
			46.637		0.452
			46.864		0.453
			47.091		0.454
			47.319		0.455
			47.547		0.456
			47.774		0.457
			48.001		0.458
			48.229		0.459
			48.456		0.46
			48.684		0.461
			48.911		0.462
			49.139		0.463
			49.366		0.465
			49.594		0.466
			49.821		0.467
			50.049		0.468
			50.276		0.469
			50.504		0.47
			50.731		0.471
			50.959		0.472
			51.186		0.473
			51.414		0.475
			51.641		0.476
			51.869		0.477
			52.096		0.478
			52.324		0.479
			52.551		0.48
			52.779		0.482
			53.006		0.483
			53.234		0.484
			53.461		0.485
			53.689		0.486
			53.916		0.487
			54.144		0.489
			54.371		0.49
			54.599		0.491
			54.826		0.492
			55.054		0.494
			55.281		0.495
			55.509		0.496
			55.736		0.497
			55.964		0.499
			56.191		0.5
			56.419		0.501
			56.646		0.502
			56.874		0.504
			57.101		0.505
			57.329		0.506
			57.556		0.508
			57.784		0.509
			58.011		0.51
			58.239		0.512
			58.466		0.513
			58.694		0.514
			58.921		0.516
			59.149		0.517
			59.376		0.518
			59.604		0.52
			59.831		0.521
			60.059		0.522
			60.286		0.524
			60.514		0.525
			60.741		0.527
			60.969		0.528
			61.196		0.529
			61.424		0.531
			61.651		0.532
			61.879		0.534
			62.106		0.535
			62.334		0.537
			62.561		0.538
			62.789		0.54
			63.016		0.541
			63.244		0.543
			63.471		0.544
			63.699		0.546
			63.926		0.547
			64.154		0.549
			64.381		0.55
			64.609		0.552
			64.836		0.554
			65.064		0.555
			65.291		0.557
			65.519		0.558
			65.746		0.56
			65.974		0.562
			66.201		0.564
			66.428		0.565
			66.656		0.567
			66.883		0.569
			67.111		0.57
			67.339		0.572
			67.566		0.574
			67.794		0.576
			68.021		0.578
			68.248		0.58
			68.476		0.582
			68.703		0.583
			68.931		0.585
			69.159		0.587
			69.386		0.589
			69.614		0.591
			69.841		0.594
			70.068		0.596
			70.296		0.598
			70.523		0.6
			70.751		0.602
			70.978		0.604
			71.206		0.607
			71.433		0.609
			71.661		0.612
			71.888		0.614
			72.116		0.616
			72.343		0.619
			72.571		0.622
			72.798		0.624
			73.026		0.627
			73.253		0.63
			73.481		0.633
			73.708		0.636
			73.936		0.639
			74.163		0.642
			74.391		0.645
			74.618		0.648
			74.846		0.651
			75.073		0.655
			75.301		0.658
			75.528		0.662
			75.756		0.666
			75.983		0.67
			76.211		0.674
			76.438		0.678
			76.666		0.682
			76.893		0.686
			77.121		0.691
			77.348		0.696
			77.576		0.7
			77.803		0.705
			78.031		0.711
			78.258		0.716
			78.486		0.722
			78.713		0.727
			78.941		0.733
			79.168		0.74
			79.396		0.746
			79.623		0.753
			79.851		0.76
			80.078		0.767
			80.306		0.774
			80.533		0.782
			80.761		0.79
			80.988		0.798
			81.216		0.807
			81.443		0.816
			81.671		0.825
			81.898		0.835
			82.126		0.845
			82.353		0.856
			82.581		0.867
			82.808		0.878
			83.036		0.89
			83.263		0.902
			83.491		0.915
			83.718		0.928
			83.946		0.942
			84.173		0.957
			84.401		0.973
			84.628		0.989
			84.856		1.006
			85.083		1.024
			85.311		1.043
			85.538		1.063
			85.766		1.085
			85.993		1.107
			86.221		1.131
			86.448		1.156
			86.676		1.182
			86.903		1.209
			87.131		1.236
			87.358		1.264
			87.586		1.292
			87.813		1.319
			88.041		1.345
			88.268		1.368
			88.496		1.388
			88.723		1.405
			88.951		1.416
			89.178		1.421
			89.406		1.42
			89.633		1.412
			89.86		1.395
			90.088		1.37
			90.315		1.336
			90.543		1.294
			90.771		1.243
			90.998		1.186
			91.226		1.122
			91.453		1.052
			91.68		0.978
			91.908		0.901
			92.135		0.823
			92.363		0.745
			92.59		0.667
			92.818		0.593
			93.046		0.522
			93.273		0.455
			93.5		0.393
			93.728		0.336
			93.955		0.285
			94.183		0.24
			94.41		0.2
			94.638		0.166
			94.865		0.136
			95.093		0.111
			95.32		0.09
			95.548		0.073
			95.775		0.059
			96.003		0.048
			96.23		0.038
			96.458		0.031
			96.685		0.025
			96.913		0.02
			97.14		0.017
			97.368		0.014
			97.595		0.011
			97.823		0.009
			98.05		0.008
			98.278		0.007
			98.505		0.006
			98.733		0.005
			98.96		0.004
			99.188		0.004
			99.415		0.003
			99.643		0.003
			99.87		0.002
			100.098		0.002
			100.325		0.002
			100.553		0.001
			100.78		0.001
			101.008		0.001
			101.235		0.001
			101.463		0.001
			101.69		0.001
			101.918		0.001
			102.145		0
			102.373		0
			102.6		0
			102.828		0
			103.055		0
			103.283		0
			103.51		0
			103.738		0
			103.965		0
			104.193		0
			104.42		0
			104.648		0
			104.875		0
			105.103		0
			105.33		0
			105.558		0
			105.785		0
			106.013		0
			106.24		0
			106.468		0
			106.695		0
			106.923		0
			107.15		0
			107.378		0
			107.605		0
			107.833		0
			108.06		0
			108.288		0
			108.515		0
			108.743		0
			108.97		0
			109.198		0
			109.425		0
			109.653		0
			109.88		0
			110.108		0
			110.335		0
			110.563		0
			110.79		0
			111.018		0
			111.245		0
			111.473		0
			111.7		0
			111.928		0
			112.155		0
			112.383		0
			112.61		0
			112.838		0
			113.065		0
			113.293		0
			113.52		0
		END_DATA
	END_SCAN  1
END_SCAN_DATA
