BEGIN_SCAN_DATA
	FORMAT=CC-Export V1.9                  
	FILE_CREATION_DATE=15-Aug-2018 12:26:11
	LAST_MODIFIED=15-Aug-2018 12:26:11
	BEGIN_SCAN  1
		TASK_NAME=tba PDD Profiles
		PROGRAM=tbaScan
		MEAS_DATE=15-Aug-2018 12:24:28
		LINAC=VARIAN PT
		MODALITY=P
		ISOCENTER=2500.00
		INPLANE_AXIS=Inplane
		CROSSPLANE_AXIS=Crossplane
		DEPTH_AXIS=Depth
		INPLANE_AXIS_DIR=GUN_TARGET
		CROSSPLANE_AXIS_DIR=LEFT_RIGHT
		DEPTH_AXIS_DIR=UP_DOWN
		ENERGY=115.00
		NOMINAL_DMAX=120.00
		SSD=2500.00
		SCD=1000.00
		BLOCK=0
		WEDGE_ANGLE=0.00
		FIELD_INPLANE=100.00
		FIELD_CROSSPLANE=100.00
		FIELD_TYPE=RECTANGULAR
		GANTRY=270.00
		GANTRY_UPRIGHT_POSITION=0
		GANTRY_ROTATION=CW
		COLL_ANGLE=0.00
		COLL_OFFSET_INPLANE=0.00
		COLL_OFFSET_CROSSPLANE=0.00
		SCAN_DEVICE=MP3
		SCAN_DEVICE_SETUP=BARA_LEFT_RIGHT
		ELECTROMETER=TANDEM_XDR
		RANGE_FIELD=HIGH
		RANGE_REFERENCE=AUTO
		DETECTOR=PLANE_PARALLEL_CHAMBER
		DETECTOR_RADIUS=0.00
		DETECTOR_NAME=PTW 34070 Bragg-Peak
		DETECTOR_SN=0000
		DETECTOR_CALIBRATION=1100000000.00
		DETECTOR_IS_CALIBRATED=0
		DETECTOR_REFERENCE=PLANE_PARALLEL_CHAMBER
		DETECTOR_REFERENCE_RADIUS=0.00
		DETECTOR_REFERENCE_NAME=PTW 34070 Bragg-Peak
		DETECTOR_REFERENCE_SN=0000
		DETECTOR_REFERENCE_IS_CALIBRATED=0
		DETECTOR_REFERENCE_CALIBRATION=1100000000.00
		DETECTOR_HV=400.0
		DETECTOR_REFERENCE_HV=400.0
		FILTER=FF
		REF_FIELD_DEPTH=0.00
		REF_FIELD_DEFINED=ISOCENTER
		REF_FIELD_INPLANE=40.00
		REF_FIELD_CROSSPLANE=40.00
		REF_SCAN_POSITIONS=0.00;1.00;2.00;3.00;4.00;5.00;6.00;7.00;8.00;9.00;10.00;11.00;12.00;13.00;14.00;15.00;16.00;17.00;18.00;19.00;20.00;21.00;22.00;23.00;24.00;25.00;26.00;27.00;28.00;29.00;30.00;31.00;32.00;33.00;34.00;35.00;36.00;37.00;38.00;39.00;40.00;41.00;42.00;43.00;44.00;45.00;46.00;47.00;48.00;49.00;50.00;51.00;52.00;53.00;54.00;55.00;56.00;57.00;58.00;59.00;60.00;61.00;62.00;63.00;64.00;65.00;66.00;67.00;68.00;69.00;70.00;71.00;72.00;73.00;74.00;75.00;76.00;77.00;78.00;79.00;80.00;81.00;82.00;83.00;84.00;85.00;86.00;87.00;88.00;89.00;90.00;91.00;92.00;93.00;94.00;95.00;96.00;97.00;98.00;99.00;100.00;101.00;102.00;103.00;104.00;105.00;106.00;107.00;108.00;109.00;110.00;
		SCAN_CURVETYPE=PDD
		SCAN_OFFAXIS_INPLANE=0.00
		SCAN_OFFAXIS_CROSSPLANE=0.00
		SCAN_ANGLE=0.00
		SCAN_DIAGONAL=NOT_DIAGONAL
		SCAN_DIRECTION=NEGATIVE
		MEAS_MEDIUM=WATER
		MEAS_PRESET=REFERENCE_DOSEMETER
		MEAS_TIME=0.100
		MEAS_UNIT=A.U.
		SCAN_SPEEDS=50.00; 1.00;150.00; 16.00;999.00; 50.00;
		DELAY_TIMES=50.00; 0.800;150.00; 0.400;999.90; 0.000;
		PRESSURE=1013.25
		TEMPERATURE=20.00
		NORM_TEMPERATURE=20.00
		CORRECTION_FACTOR=1.0000
		EXPECTED_MAX_DOSE_RATE=8.00
		BEGIN_DATA
			0		0.365
			0.25		0.364
			0.499		0.364
			0.749		0.364
			0.998		0.364
			1.248		0.364
			1.497		0.364
			1.747		0.364
			1.996		0.364
			2.246		0.364
			2.495		0.363
			2.745		0.363
			2.994		0.363
			3.244		0.363
			3.494		0.363
			3.743		0.363
			3.993		0.363
			4.242		0.363
			4.492		0.363
			4.741		0.363
			4.991		0.363
			5.24		0.363
			5.49		0.363
			5.739		0.363
			5.989		0.363
			6.238		0.363
			6.488		0.363
			6.738		0.363
			6.987		0.363
			7.237		0.363
			7.486		0.363
			7.736		0.363
			7.985		0.363
			8.235		0.363
			8.484		0.364
			8.734		0.364
			8.983		0.364
			9.233		0.364
			9.482		0.364
			9.732		0.364
			9.982		0.364
			10.231		0.364
			10.481		0.364
			10.73		0.364
			10.98		0.365
			11.229		0.365
			11.479		0.365
			11.728		0.365
			11.978		0.365
			12.227		0.365
			12.477		0.365
			12.726		0.366
			12.976		0.366
			13.226		0.366
			13.475		0.366
			13.725		0.366
			13.974		0.366
			14.224		0.367
			14.473		0.367
			14.723		0.367
			14.972		0.367
			15.222		0.367
			15.471		0.368
			15.721		0.368
			15.97		0.368
			16.22		0.368
			16.47		0.369
			16.719		0.369
			16.969		0.369
			17.218		0.369
			17.468		0.369
			17.717		0.37
			17.967		0.37
			18.216		0.37
			18.466		0.371
			18.715		0.371
			18.965		0.371
			19.215		0.371
			19.464		0.372
			19.714		0.372
			19.963		0.372
			20.213		0.372
			20.462		0.373
			20.712		0.373
			20.961		0.373
			21.211		0.374
			21.46		0.374
			21.71		0.374
			21.959		0.375
			22.209		0.375
			22.458		0.375
			22.708		0.376
			22.958		0.376
			23.207		0.376
			23.457		0.377
			23.706		0.377
			23.956		0.378
			24.205		0.378
			24.455		0.378
			24.704		0.379
			24.954		0.379
			25.203		0.379
			25.453		0.38
			25.702		0.38
			25.952		0.381
			26.202		0.381
			26.451		0.382
			26.701		0.382
			26.95		0.382
			27.2		0.383
			27.449		0.383
			27.699		0.384
			27.948		0.384
			28.198		0.385
			28.448		0.385
			28.697		0.386
			28.947		0.386
			29.196		0.387
			29.446		0.387
			29.695		0.388
			29.945		0.388
			30.194		0.389
			30.444		0.389
			30.693		0.39
			30.943		0.39
			31.192		0.391
			31.442		0.391
			31.691		0.392
			31.941		0.393
			32.19		0.393
			32.44		0.394
			32.69		0.394
			32.939		0.395
			33.189		0.395
			33.438		0.396
			33.688		0.397
			33.937		0.397
			34.187		0.398
			34.436		0.399
			34.686		0.399
			34.936		0.4
			35.185		0.4
			35.435		0.401
			35.684		0.402
			35.934		0.402
			36.183		0.403
			36.433		0.404
			36.682		0.404
			36.932		0.405
			37.181		0.406
			37.431		0.406
			37.68		0.407
			37.93		0.408
			38.18		0.409
			38.429		0.409
			38.679		0.41
			38.928		0.411
			39.178		0.411
			39.427		0.412
			39.677		0.413
			39.926		0.414
			40.176		0.414
			40.425		0.415
			40.675		0.416
			40.924		0.417
			41.174		0.418
			41.424		0.418
			41.673		0.419
			41.923		0.42
			42.172		0.421
			42.422		0.422
			42.671		0.422
			42.921		0.423
			43.17		0.424
			43.42		0.425
			43.669		0.426
			43.919		0.427
			44.168		0.428
			44.418		0.428
			44.667		0.429
			44.917		0.43
			45.167		0.431
			45.416		0.432
			45.666		0.433
			45.915		0.434
			46.165		0.435
			46.414		0.436
			46.664		0.436
			46.913		0.437
			47.163		0.438
			47.412		0.439
			47.662		0.44
			47.911		0.441
			48.161		0.442
			48.411		0.443
			48.66		0.444
			48.91		0.445
			49.159		0.446
			49.409		0.447
			49.658		0.448
			49.908		0.449
			50.157		0.45
			50.407		0.451
			50.656		0.452
			50.906		0.453
			51.155		0.454
			51.405		0.455
			51.655		0.456
			51.904		0.457
			52.154		0.458
			52.403		0.459
			52.653		0.46
			52.902		0.461
			53.152		0.462
			53.401		0.464
			53.651		0.465
			53.9		0.466
			54.15		0.467
			54.4		0.468
			54.649		0.469
			54.899		0.47
			55.148		0.471
			55.398		0.472
			55.647		0.474
			55.897		0.475
			56.146		0.476
			56.396		0.477
			56.645		0.478
			56.895		0.479
			57.144		0.48
			57.394		0.482
			57.644		0.483
			57.893		0.484
			58.143		0.485
			58.392		0.486
			58.642		0.488
			58.891		0.489
			59.141		0.49
			59.39		0.491
			59.64		0.492
			59.889		0.494
			60.139		0.495
			60.389		0.496
			60.638		0.497
			60.888		0.499
			61.137		0.5
			61.387		0.501
			61.636		0.503
			61.886		0.504
			62.135		0.505
			62.385		0.506
			62.634		0.508
			62.884		0.509
			63.133		0.51
			63.383		0.512
			63.632		0.513
			63.882		0.514
			64.132		0.516
			64.381		0.517
			64.631		0.518
			64.88		0.52
			65.13		0.521
			65.379		0.523
			65.629		0.524
			65.878		0.525
			66.128		0.527
			66.377		0.528
			66.627		0.53
			66.877		0.531
			67.126		0.533
			67.376		0.534
			67.625		0.535
			67.875		0.537
			68.124		0.538
			68.374		0.54
			68.623		0.541
			68.873		0.543
			69.122		0.544
			69.372		0.546
			69.621		0.548
			69.871		0.549
			70.12		0.551
			70.37		0.552
			70.62		0.554
			70.869		0.556
			71.119		0.557
			71.368		0.559
			71.618		0.561
			71.867		0.562
			72.117		0.564
			72.366		0.566
			72.616		0.567
			72.865		0.569
			73.115		0.571
			73.365		0.573
			73.614		0.575
			73.864		0.577
			74.113		0.578
			74.363		0.58
			74.612		0.582
			74.862		0.584
			75.111		0.586
			75.361		0.588
			75.61		0.59
			75.86		0.592
			76.109		0.595
			76.359		0.597
			76.608		0.599
			76.858		0.601
			77.108		0.603
			77.357		0.606
			77.607		0.608
			77.856		0.611
			78.106		0.613
			78.355		0.616
			78.605		0.618
			78.854		0.621
			79.104		0.624
			79.353		0.626
			79.603		0.629
			79.853		0.632
			80.102		0.635
			80.352		0.638
			80.601		0.641
			80.851		0.645
			81.1		0.648
			81.35		0.651
			81.599		0.655
			81.849		0.659
			82.098		0.662
			82.348		0.666
			82.597		0.67
			82.847		0.674
			83.096		0.679
			83.346		0.683
			83.596		0.688
			83.845		0.692
			84.095		0.697
			84.344		0.702
			84.594		0.707
			84.843		0.713
			85.093		0.718
			85.342		0.724
			85.592		0.73
			85.841		0.737
			86.091		0.743
			86.34		0.75
			86.59		0.757
			86.84		0.764
			87.089		0.772
			87.339		0.78
			87.588		0.788
			87.838		0.797
			88.087		0.806
			88.337		0.815
			88.586		0.825
			88.836		0.835
			89.086		0.845
			89.335		0.856
			89.585		0.868
			89.834		0.88
			90.084		0.892
			90.333		0.905
			90.583		0.918
			90.832		0.932
			91.082		0.947
			91.331		0.962
			91.581		0.978
			91.83		0.996
			92.08		1.014
			92.329		1.033
			92.579		1.053
			92.828		1.074
			93.078		1.097
			93.328		1.121
			93.577		1.146
			93.827		1.173
			94.076		1.201
			94.326		1.229
			94.575		1.259
			94.825		1.288
			95.074		1.316
			95.324		1.344
			95.574		1.369
			95.823		1.391
			96.073		1.408
			96.322		1.42
			96.572		1.426
			96.821		1.424
			97.071		1.414
			97.32		1.395
			97.57		1.367
			97.819		1.329
			98.069		1.282
			98.318		1.226
			98.568		1.162
			98.817		1.092
			99.067		1.016
			99.317		0.936
			99.566		0.854
			99.816		0.771
			100.065		0.69
			100.315		0.61
			100.564		0.534
			100.814		0.463
			101.063		0.398
			101.313		0.338
			101.562		0.284
			101.812		0.237
			102.061		0.196
			102.311		0.16
			102.561		0.13
			102.81		0.105
			103.06		0.085
			103.309		0.068
			103.559		0.054
			103.808		0.043
			104.058		0.034
			104.307		0.027
			104.557		0.022
			104.806		0.018
			105.056		0.014
			105.305		0.012
			105.555		0.01
			105.805		0.008
			106.054		0.007
			106.304		0.005
			106.553		0.005
			106.803		0.004
			107.052		0.003
			107.302		0.003
			107.551		0.002
			107.801		0.002
			108.05		0.002
			108.3		0.001
			108.549		0.001
			108.799		0.001
			109.049		0.001
			109.298		0.001
			109.548		0.001
			109.797		0
			110.047		0
			110.296		0
			110.546		0
			110.795		0
			111.045		0
			111.294		0
			111.544		0
			111.794		0
			112.043		0
			112.293		0
			112.542		0
			112.792		0
			113.041		0
			113.291		0
			113.54		0
			113.79		0
			114.039		0
			114.289		0
			114.538		0
			114.788		0
			115.038		0
			115.287		0
			115.537		0
			115.786		0
			116.036		0
			116.285		0
			116.535		0
			116.784		0
			117.034		0
			117.283		0
			117.533		0
			117.782		0
			118.032		0
			118.282		0
			118.531		0
			118.781		0
			119.03		0
			119.28		0
			119.529		0
			119.779		0
			120.028		0
			120.278		0
			120.527		0
			120.777		0
			121.026		0
			121.276		0
			121.526		0
			121.775		0
			122.025		0
			122.274		0
			122.524		0
			122.773		0
			123.023		0
			123.272		0
			123.522		0
			123.771		0
			124.021		0
			124.27		0
			124.52		0
		END_DATA
	END_SCAN  1
END_SCAN_DATA
