BEGIN_SCAN_DATA
	FORMAT=CC-Export V1.9                  
	FILE_CREATION_DATE=15-Aug-2018 12:26:11
	LAST_MODIFIED=15-Aug-2018 12:26:11
	BEGIN_SCAN  1
		TASK_NAME=tba PDD Profiles
		PROGRAM=tbaScan
		MEAS_DATE=15-Aug-2018 12:24:28
		LINAC=VARIAN PT
		MODALITY=P
		ISOCENTER=2500.00
		INPLANE_AXIS=Inplane
		CROSSPLANE_AXIS=Crossplane
		DEPTH_AXIS=Depth
		INPLANE_AXIS_DIR=GUN_TARGET
		CROSSPLANE_AXIS_DIR=LEFT_RIGHT
		DEPTH_AXIS_DIR=UP_DOWN
		ENERGY=120.00
		NOMINAL_DMAX=120.00
		SSD=2500.00
		SCD=1000.00
		BLOCK=0
		WEDGE_ANGLE=0.00
		FIELD_INPLANE=100.00
		FIELD_CROSSPLANE=100.00
		FIELD_TYPE=RECTANGULAR
		GANTRY=270.00
		GANTRY_UPRIGHT_POSITION=0
		GANTRY_ROTATION=CW
		COLL_ANGLE=0.00
		COLL_OFFSET_INPLANE=0.00
		COLL_OFFSET_CROSSPLANE=0.00
		SCAN_DEVICE=MP3
		SCAN_DEVICE_SETUP=BARA_LEFT_RIGHT
		ELECTROMETER=TANDEM_XDR
		RANGE_FIELD=HIGH
		RANGE_REFERENCE=AUTO
		DETECTOR=PLANE_PARALLEL_CHAMBER
		DETECTOR_RADIUS=0.00
		DETECTOR_NAME=PTW 34070 Bragg-Peak
		DETECTOR_SN=0000
		DETECTOR_CALIBRATION=1100000000.00
		DETECTOR_IS_CALIBRATED=0
		DETECTOR_REFERENCE=PLANE_PARALLEL_CHAMBER
		DETECTOR_REFERENCE_RADIUS=0.00
		DETECTOR_REFERENCE_NAME=PTW 34070 Bragg-Peak
		DETECTOR_REFERENCE_SN=0000
		DETECTOR_REFERENCE_IS_CALIBRATED=0
		DETECTOR_REFERENCE_CALIBRATION=1100000000.00
		DETECTOR_HV=400.0
		DETECTOR_REFERENCE_HV=400.0
		FILTER=FF
		REF_FIELD_DEPTH=0.00
		REF_FIELD_DEFINED=ISOCENTER
		REF_FIELD_INPLANE=40.00
		REF_FIELD_CROSSPLANE=40.00
		REF_SCAN_POSITIONS=0.00;1.00;2.00;3.00;4.00;5.00;6.00;7.00;8.00;9.00;10.00;11.00;12.00;13.00;14.00;15.00;16.00;17.00;18.00;19.00;20.00;21.00;22.00;23.00;24.00;25.00;26.00;27.00;28.00;29.00;30.00;31.00;32.00;33.00;34.00;35.00;36.00;37.00;38.00;39.00;40.00;41.00;42.00;43.00;44.00;45.00;46.00;47.00;48.00;49.00;50.00;51.00;52.00;53.00;54.00;55.00;56.00;57.00;58.00;59.00;60.00;61.00;62.00;63.00;64.00;65.00;66.00;67.00;68.00;69.00;70.00;71.00;72.00;73.00;74.00;75.00;76.00;77.00;78.00;79.00;80.00;81.00;82.00;83.00;84.00;85.00;86.00;87.00;88.00;89.00;90.00;91.00;92.00;93.00;94.00;95.00;96.00;97.00;98.00;99.00;100.00;101.00;102.00;103.00;104.00;105.00;106.00;107.00;108.00;109.00;110.00;
		SCAN_CURVETYPE=PDD
		SCAN_OFFAXIS_INPLANE=0.00
		SCAN_OFFAXIS_CROSSPLANE=0.00
		SCAN_ANGLE=0.00
		SCAN_DIAGONAL=NOT_DIAGONAL
		SCAN_DIRECTION=NEGATIVE
		MEAS_MEDIUM=WATER
		MEAS_PRESET=REFERENCE_DOSEMETER
		MEAS_TIME=0.100
		MEAS_UNIT=A.U.
		SCAN_SPEEDS=50.00; 1.00;150.00; 16.00;999.00; 50.00;
		DELAY_TIMES=50.00; 0.800;150.00; 0.400;999.90; 0.000;
		PRESSURE=1013.25
		TEMPERATURE=20.00
		NORM_TEMPERATURE=20.00
		CORRECTION_FACTOR=1.0000
		EXPECTED_MAX_DOSE_RATE=8.00
		BEGIN_DATA
			0		0.366
			0.26		0.366
			0.521		0.366
			0.781		0.366
			1.041		0.366
			1.302		0.366
			1.562		0.365
			1.822		0.365
			2.083		0.365
			2.343		0.365
			2.603		0.365
			2.864		0.365
			3.124		0.365
			3.384		0.365
			3.645		0.365
			3.905		0.365
			4.165		0.365
			4.426		0.365
			4.686		0.365
			4.946		0.365
			5.207		0.365
			5.467		0.365
			5.727		0.365
			5.988		0.365
			6.248		0.365
			6.509		0.365
			6.769		0.365
			7.029		0.365
			7.29		0.365
			7.55		0.365
			7.81		0.365
			8.071		0.365
			8.331		0.365
			8.591		0.365
			8.852		0.365
			9.112		0.365
			9.372		0.365
			9.633		0.365
			9.893		0.365
			10.153		0.365
			10.414		0.365
			10.674		0.366
			10.934		0.366
			11.195		0.366
			11.455		0.366
			11.715		0.366
			11.976		0.366
			12.236		0.366
			12.496		0.366
			12.757		0.367
			13.017		0.367
			13.277		0.367
			13.538		0.367
			13.798		0.367
			14.058		0.367
			14.319		0.367
			14.579		0.368
			14.839		0.368
			15.1		0.368
			15.36		0.368
			15.62		0.368
			15.881		0.368
			16.141		0.369
			16.402		0.369
			16.662		0.369
			16.922		0.369
			17.183		0.369
			17.443		0.37
			17.703		0.37
			17.963		0.37
			18.224		0.37
			18.484		0.371
			18.744		0.371
			19.005		0.371
			19.265		0.371
			19.526		0.371
			19.786		0.372
			20.046		0.372
			20.307		0.372
			20.567		0.372
			20.827		0.373
			21.088		0.373
			21.348		0.373
			21.608		0.374
			21.869		0.374
			22.129		0.374
			22.389		0.374
			22.65		0.375
			22.91		0.375
			23.17		0.375
			23.431		0.376
			23.691		0.376
			23.951		0.376
			24.212		0.377
			24.472		0.377
			24.732		0.377
			24.993		0.378
			25.253		0.378
			25.513		0.378
			25.774		0.379
			26.034		0.379
			26.294		0.379
			26.555		0.38
			26.815		0.38
			27.075		0.38
			27.336		0.381
			27.596		0.381
			27.857		0.382
			28.117		0.382
			28.377		0.382
			28.638		0.383
			28.898		0.383
			29.158		0.384
			29.419		0.384
			29.679		0.385
			29.939		0.385
			30.199		0.385
			30.46		0.386
			30.72		0.386
			30.98		0.387
			31.241		0.387
			31.501		0.388
			31.762		0.388
			32.022		0.389
			32.282		0.389
			32.543		0.39
			32.803		0.39
			33.063		0.391
			33.324		0.391
			33.584		0.392
			33.844		0.392
			34.105		0.393
			34.365		0.393
			34.625		0.394
			34.886		0.394
			35.146		0.395
			35.406		0.395
			35.667		0.396
			35.927		0.397
			36.187		0.397
			36.448		0.398
			36.708		0.398
			36.968		0.399
			37.229		0.399
			37.489		0.4
			37.749		0.401
			38.01		0.401
			38.27		0.402
			38.53		0.403
			38.791		0.403
			39.051		0.404
			39.311		0.404
			39.572		0.405
			39.832		0.406
			40.092		0.406
			40.353		0.407
			40.613		0.408
			40.874		0.408
			41.134		0.409
			41.394		0.41
			41.654		0.41
			41.915		0.411
			42.175		0.412
			42.436		0.413
			42.696		0.413
			42.956		0.414
			43.217		0.415
			43.477		0.415
			43.737		0.416
			43.998		0.417
			44.258		0.418
			44.518		0.418
			44.779		0.419
			45.039		0.42
			45.299		0.421
			45.56		0.421
			45.82		0.422
			46.08		0.423
			46.341		0.424
			46.601		0.425
			46.861		0.425
			47.122		0.426
			47.382		0.427
			47.642		0.428
			47.903		0.429
			48.163		0.43
			48.423		0.43
			48.684		0.431
			48.944		0.432
			49.204		0.433
			49.465		0.434
			49.725		0.435
			49.985		0.436
			50.246		0.436
			50.506		0.437
			50.766		0.438
			51.027		0.439
			51.287		0.44
			51.548		0.441
			51.808		0.442
			52.068		0.443
			52.328		0.444
			52.589		0.445
			52.849		0.445
			53.11		0.446
			53.37		0.447
			53.63		0.448
			53.89		0.449
			54.151		0.45
			54.411		0.451
			54.672		0.452
			54.932		0.453
			55.192		0.454
			55.453		0.455
			55.713		0.456
			55.973		0.457
			56.234		0.458
			56.494		0.459
			56.754		0.46
			57.015		0.461
			57.275		0.462
			57.535		0.463
			57.796		0.464
			58.056		0.465
			58.316		0.466
			58.577		0.467
			58.837		0.468
			59.097		0.47
			59.358		0.471
			59.618		0.472
			59.878		0.473
			60.139		0.474
			60.399		0.475
			60.659		0.476
			60.92		0.477
			61.18		0.478
			61.44		0.479
			61.701		0.48
			61.961		0.482
			62.221		0.483
			62.482		0.484
			62.742		0.485
			63.002		0.486
			63.263		0.487
			63.523		0.488
			63.784		0.49
			64.044		0.491
			64.304		0.492
			64.564		0.493
			64.825		0.494
			65.085		0.495
			65.345		0.497
			65.606		0.498
			65.866		0.499
			66.127		0.5
			66.387		0.502
			66.647		0.503
			66.908		0.504
			67.168		0.505
			67.428		0.506
			67.689		0.508
			67.949		0.509
			68.209		0.51
			68.47		0.511
			68.73		0.513
			68.99		0.514
			69.251		0.515
			69.511		0.517
			69.771		0.518
			70.032		0.519
			70.292		0.521
			70.552		0.522
			70.813		0.523
			71.073		0.525
			71.333		0.526
			71.594		0.527
			71.854		0.529
			72.114		0.53
			72.375		0.531
			72.635		0.533
			72.895		0.534
			73.156		0.536
			73.416		0.537
			73.676		0.538
			73.937		0.54
			74.197		0.541
			74.457		0.543
			74.718		0.544
			74.978		0.546
			75.239		0.547
			75.499		0.549
			75.759		0.55
			76.02		0.552
			76.28		0.553
			76.54		0.555
			76.8		0.556
			77.061		0.558
			77.321		0.559
			77.581		0.561
			77.842		0.563
			78.102		0.564
			78.363		0.566
			78.623		0.568
			78.883		0.569
			79.144		0.571
			79.404		0.573
			79.664		0.575
			79.925		0.576
			80.185		0.578
			80.445		0.58
			80.706		0.582
			80.966		0.584
			81.226		0.586
			81.487		0.588
			81.747		0.59
			82.007		0.592
			82.268		0.594
			82.528		0.596
			82.788		0.598
			83.049		0.6
			83.309		0.602
			83.569		0.604
			83.83		0.607
			84.09		0.609
			84.35		0.611
			84.611		0.614
			84.871		0.616
			85.131		0.619
			85.392		0.621
			85.652		0.624
			85.912		0.627
			86.173		0.63
			86.433		0.632
			86.693		0.635
			86.954		0.638
			87.214		0.641
			87.475		0.645
			87.735		0.648
			87.995		0.651
			88.256		0.655
			88.516		0.658
			88.776		0.662
			89.036		0.666
			89.297		0.669
			89.557		0.673
			89.817		0.678
			90.078		0.682
			90.338		0.686
			90.599		0.691
			90.859		0.696
			91.119		0.7
			91.38		0.705
			91.64		0.711
			91.9		0.716
			92.161		0.722
			92.421		0.728
			92.681		0.734
			92.942		0.74
			93.202		0.746
			93.462		0.753
			93.723		0.76
			93.983		0.768
			94.243		0.775
			94.504		0.783
			94.764		0.791
			95.024		0.8
			95.285		0.809
			95.545		0.818
			95.805		0.828
			96.066		0.838
			96.326		0.848
			96.586		0.859
			96.847		0.87
			97.107		0.882
			97.367		0.894
			97.628		0.907
			97.888		0.92
			98.148		0.934
			98.409		0.949
			98.669		0.964
			98.929		0.98
			99.19		0.997
			99.45		1.014
			99.711		1.033
			99.971		1.053
			100.231		1.074
			100.492		1.096
			100.752		1.12
			101.012		1.145
			101.273		1.171
			101.533		1.199
			101.793		1.227
			102.054		1.257
			102.314		1.286
			102.574		1.315
			102.835		1.343
			103.095		1.369
			103.355		1.393
			103.616		1.412
			103.876		1.426
			104.136		1.434
			104.397		1.435
			104.657		1.427
			104.917		1.411
			105.178		1.385
			105.438		1.35
			105.698		1.305
			105.959		1.251
			106.219		1.188
			106.479		1.119
			106.74		1.043
			107		0.964
			107.26		0.881
			107.521		0.798
			107.781		0.714
			108.041		0.633
			108.302		0.556
			108.562		0.483
			108.822		0.415
			109.083		0.353
			109.343		0.298
			109.603		0.248
			109.864		0.205
			110.124		0.168
			110.384		0.137
			110.645		0.111
			110.905		0.089
			111.165		0.071
			111.426		0.057
			111.686		0.045
			111.946		0.036
			112.207		0.029
			112.467		0.023
			112.728		0.018
			112.988		0.015
			113.248		0.012
			113.509		0.01
			113.769		0.008
			114.029		0.007
			114.29		0.006
			114.55		0.005
			114.81		0.004
			115.071		0.003
			115.331		0.003
			115.591		0.002
			115.852		0.002
			116.112		0.002
			116.372		0.001
			116.633		0.001
			116.893		0.001
			117.153		0.001
			117.414		0.001
			117.674		0
			117.934		0
			118.195		0
			118.455		0
			118.715		0
			118.976		0
			119.236		0
			119.496		0
			119.757		0
			120.017		0
			120.277		0
			120.538		0
			120.798		0
			121.058		0
			121.319		0
			121.579		0
			121.839		0
			122.1		0
			122.36		0
			122.62		0
			122.881		0
			123.141		0
			123.401		0
			123.662		0
			123.922		0
			124.183		0
			124.443		0
			124.703		0
			124.964		0
			125.224		0
			125.484		0
			125.745		0
			126.005		0
			126.265		0
			126.526		0
			126.786		0
			127.046		0
			127.307		0
			127.567		0
			127.827		0
			128.088		0
			128.348		0
			128.608		0
			128.869		0
			129.129		0
			129.389		0
			129.65		0
			129.91		0
		END_DATA
	END_SCAN  1
END_SCAN_DATA
