BEGIN_SCAN_DATA
	FORMAT=CC-Export V1.9                  
	FILE_CREATION_DATE=15-Aug-2018 12:26:11
	LAST_MODIFIED=15-Aug-2018 12:26:11
	BEGIN_SCAN  1
		TASK_NAME=tba PDD Profiles
		PROGRAM=tbaScan
		MEAS_DATE=15-Aug-2018 12:24:28
		LINAC=VARIAN PT
		MODALITY=P
		ISOCENTER=2500.00
		INPLANE_AXIS=Inplane
		CROSSPLANE_AXIS=Crossplane
		DEPTH_AXIS=Depth
		INPLANE_AXIS_DIR=GUN_TARGET
		CROSSPLANE_AXIS_DIR=LEFT_RIGHT
		DEPTH_AXIS_DIR=UP_DOWN
		ENERGY=125.00
		NOMINAL_DMAX=120.00
		SSD=2500.00
		SCD=1000.00
		BLOCK=0
		WEDGE_ANGLE=0.00
		FIELD_INPLANE=100.00
		FIELD_CROSSPLANE=100.00
		FIELD_TYPE=RECTANGULAR
		GANTRY=270.00
		GANTRY_UPRIGHT_POSITION=0
		GANTRY_ROTATION=CW
		COLL_ANGLE=0.00
		COLL_OFFSET_INPLANE=0.00
		COLL_OFFSET_CROSSPLANE=0.00
		SCAN_DEVICE=MP3
		SCAN_DEVICE_SETUP=BARA_LEFT_RIGHT
		ELECTROMETER=TANDEM_XDR
		RANGE_FIELD=HIGH
		RANGE_REFERENCE=AUTO
		DETECTOR=PLANE_PARALLEL_CHAMBER
		DETECTOR_RADIUS=0.00
		DETECTOR_NAME=PTW 34070 Bragg-Peak
		DETECTOR_SN=0000
		DETECTOR_CALIBRATION=1100000000.00
		DETECTOR_IS_CALIBRATED=0
		DETECTOR_REFERENCE=PLANE_PARALLEL_CHAMBER
		DETECTOR_REFERENCE_RADIUS=0.00
		DETECTOR_REFERENCE_NAME=PTW 34070 Bragg-Peak
		DETECTOR_REFERENCE_SN=0000
		DETECTOR_REFERENCE_IS_CALIBRATED=0
		DETECTOR_REFERENCE_CALIBRATION=1100000000.00
		DETECTOR_HV=400.0
		DETECTOR_REFERENCE_HV=400.0
		FILTER=FF
		REF_FIELD_DEPTH=0.00
		REF_FIELD_DEFINED=ISOCENTER
		REF_FIELD_INPLANE=40.00
		REF_FIELD_CROSSPLANE=40.00
		REF_SCAN_POSITIONS=0.00;1.00;2.00;3.00;4.00;5.00;6.00;7.00;8.00;9.00;10.00;11.00;12.00;13.00;14.00;15.00;16.00;17.00;18.00;19.00;20.00;21.00;22.00;23.00;24.00;25.00;26.00;27.00;28.00;29.00;30.00;31.00;32.00;33.00;34.00;35.00;36.00;37.00;38.00;39.00;40.00;41.00;42.00;43.00;44.00;45.00;46.00;47.00;48.00;49.00;50.00;51.00;52.00;53.00;54.00;55.00;56.00;57.00;58.00;59.00;60.00;61.00;62.00;63.00;64.00;65.00;66.00;67.00;68.00;69.00;70.00;71.00;72.00;73.00;74.00;75.00;76.00;77.00;78.00;79.00;80.00;81.00;82.00;83.00;84.00;85.00;86.00;87.00;88.00;89.00;90.00;91.00;92.00;93.00;94.00;95.00;96.00;97.00;98.00;99.00;100.00;101.00;102.00;103.00;104.00;105.00;106.00;107.00;108.00;109.00;110.00;
		SCAN_CURVETYPE=PDD
		SCAN_OFFAXIS_INPLANE=0.00
		SCAN_OFFAXIS_CROSSPLANE=0.00
		SCAN_ANGLE=0.00
		SCAN_DIAGONAL=NOT_DIAGONAL
		SCAN_DIRECTION=NEGATIVE
		MEAS_MEDIUM=WATER
		MEAS_PRESET=REFERENCE_DOSEMETER
		MEAS_TIME=0.100
		MEAS_UNIT=A.U.
		SCAN_SPEEDS=50.00; 1.00;150.00; 16.00;999.00; 50.00;
		DELAY_TIMES=50.00; 0.800;150.00; 0.400;999.90; 0.000;
		PRESSURE=1013.25
		TEMPERATURE=20.00
		NORM_TEMPERATURE=20.00
		CORRECTION_FACTOR=1.0000
		EXPECTED_MAX_DOSE_RATE=8.00
		BEGIN_DATA
			0		0.363
			0.283		0.363
			0.566		0.363
			0.848		0.362
			1.131		0.362
			1.414		0.362
			1.697		0.362
			1.98		0.362
			2.263		0.362
			2.545		0.362
			2.828		0.362
			3.111		0.362
			3.394		0.362
			3.677		0.362
			3.96		0.362
			4.242		0.362
			4.525		0.362
			4.808		0.362
			5.091		0.362
			5.374		0.362
			5.657		0.362
			5.939		0.362
			6.222		0.362
			6.505		0.362
			6.788		0.362
			7.071		0.362
			7.353		0.362
			7.636		0.363
			7.919		0.363
			8.202		0.363
			8.485		0.363
			8.768		0.363
			9.05		0.363
			9.333		0.363
			9.616		0.364
			9.899		0.364
			10.182		0.364
			10.465		0.364
			10.747		0.364
			11.03		0.364
			11.313		0.365
			11.596		0.365
			11.879		0.365
			12.161		0.365
			12.444		0.365
			12.727		0.366
			13.01		0.366
			13.293		0.366
			13.576		0.366
			13.858		0.366
			14.141		0.367
			14.424		0.367
			14.707		0.367
			14.99		0.367
			15.273		0.368
			15.555		0.368
			15.838		0.368
			16.121		0.368
			16.404		0.368
			16.687		0.369
			16.969		0.369
			17.252		0.369
			17.535		0.369
			17.818		0.37
			18.101		0.37
			18.384		0.37
			18.667		0.37
			18.949		0.371
			19.232		0.371
			19.515		0.371
			19.798		0.371
			20.081		0.372
			20.363		0.372
			20.646		0.372
			20.929		0.372
			21.212		0.373
			21.495		0.373
			21.778		0.373
			22.06		0.374
			22.343		0.374
			22.626		0.374
			22.909		0.374
			23.192		0.375
			23.475		0.375
			23.757		0.375
			24.04		0.376
			24.323		0.376
			24.606		0.376
			24.889		0.376
			25.171		0.377
			25.454		0.377
			25.737		0.377
			26.02		0.378
			26.303		0.378
			26.586		0.378
			26.868		0.379
			27.151		0.379
			27.434		0.379
			27.717		0.38
			28		0.38
			28.283		0.38
			28.565		0.381
			28.848		0.381
			29.131		0.382
			29.414		0.382
			29.697		0.382
			29.979		0.383
			30.262		0.383
			30.545		0.384
			30.828		0.384
			31.111		0.384
			31.394		0.385
			31.677		0.385
			31.959		0.386
			32.242		0.386
			32.525		0.387
			32.808		0.387
			33.091		0.387
			33.373		0.388
			33.656		0.388
			33.939		0.389
			34.222		0.389
			34.505		0.39
			34.788		0.39
			35.07		0.391
			35.353		0.391
			35.636		0.392
			35.919		0.392
			36.202		0.393
			36.485		0.393
			36.767		0.394
			37.05		0.394
			37.333		0.395
			37.616		0.395
			37.899		0.396
			38.181		0.397
			38.464		0.397
			38.747		0.398
			39.03		0.398
			39.313		0.399
			39.596		0.399
			39.878		0.4
			40.161		0.401
			40.444		0.401
			40.727		0.402
			41.01		0.402
			41.292		0.403
			41.575		0.404
			41.858		0.404
			42.141		0.405
			42.424		0.405
			42.707		0.406
			42.989		0.407
			43.272		0.407
			43.555		0.408
			43.838		0.409
			44.121		0.409
			44.404		0.41
			44.687		0.411
			44.969		0.411
			45.252		0.412
			45.535		0.413
			45.818		0.414
			46.101		0.414
			46.383		0.415
			46.666		0.416
			46.949		0.416
			47.232		0.417
			47.515		0.418
			47.798		0.419
			48.08		0.419
			48.363		0.42
			48.646		0.421
			48.929		0.422
			49.212		0.422
			49.494		0.423
			49.777		0.424
			50.06		0.425
			50.343		0.426
			50.626		0.426
			50.909		0.427
			51.191		0.428
			51.474		0.429
			51.757		0.43
			52.04		0.431
			52.323		0.431
			52.606		0.432
			52.888		0.433
			53.171		0.434
			53.454		0.435
			53.737		0.436
			54.02		0.437
			54.303		0.437
			54.585		0.438
			54.868		0.439
			55.151		0.44
			55.434		0.441
			55.717		0.442
			56		0.443
			56.282		0.444
			56.565		0.445
			56.848		0.446
			57.131		0.446
			57.414		0.447
			57.696		0.448
			57.979		0.449
			58.262		0.45
			58.545		0.451
			58.828		0.452
			59.111		0.453
			59.393		0.454
			59.676		0.455
			59.959		0.456
			60.242		0.457
			60.525		0.458
			60.807		0.459
			61.09		0.46
			61.373		0.461
			61.656		0.462
			61.939		0.463
			62.222		0.464
			62.505		0.465
			62.787		0.466
			63.07		0.467
			63.353		0.468
			63.636		0.469
			63.919		0.47
			64.201		0.471
			64.484		0.473
			64.767		0.474
			65.05		0.475
			65.333		0.476
			65.616		0.477
			65.898		0.478
			66.181		0.479
			66.464		0.48
			66.747		0.481
			67.03		0.482
			67.313		0.484
			67.595		0.485
			67.878		0.486
			68.161		0.487
			68.444		0.488
			68.727		0.489
			69.009		0.49
			69.292		0.492
			69.575		0.493
			69.858		0.494
			70.141		0.495
			70.424		0.496
			70.706		0.497
			70.989		0.499
			71.272		0.5
			71.555		0.501
			71.838		0.502
			72.12		0.504
			72.403		0.505
			72.686		0.506
			72.969		0.507
			73.252		0.508
			73.535		0.51
			73.817		0.511
			74.1		0.512
			74.383		0.514
			74.666		0.515
			74.949		0.516
			75.232		0.517
			75.514		0.519
			75.797		0.52
			76.08		0.521
			76.363		0.523
			76.646		0.524
			76.929		0.525
			77.211		0.527
			77.494		0.528
			77.777		0.529
			78.06		0.531
			78.343		0.532
			78.626		0.533
			78.908		0.535
			79.191		0.536
			79.474		0.538
			79.757		0.539
			80.04		0.541
			80.323		0.542
			80.605		0.543
			80.888		0.545
			81.171		0.546
			81.454		0.548
			81.737		0.549
			82.019		0.551
			82.302		0.552
			82.585		0.554
			82.868		0.556
			83.151		0.557
			83.434		0.559
			83.716		0.56
			83.999		0.562
			84.282		0.564
			84.565		0.565
			84.848		0.567
			85.131		0.569
			85.413		0.57
			85.696		0.572
			85.979		0.574
			86.262		0.576
			86.545		0.577
			86.827		0.579
			87.11		0.581
			87.393		0.583
			87.676		0.585
			87.959		0.587
			88.242		0.589
			88.524		0.591
			88.807		0.593
			89.09		0.595
			89.373		0.597
			89.656		0.599
			89.939		0.602
			90.221		0.604
			90.504		0.606
			90.787		0.609
			91.07		0.611
			91.353		0.613
			91.635		0.616
			91.918		0.619
			92.201		0.621
			92.484		0.624
			92.767		0.627
			93.05		0.63
			93.332		0.632
			93.615		0.635
			93.898		0.639
			94.181		0.642
			94.464		0.645
			94.747		0.648
			95.029		0.652
			95.312		0.655
			95.595		0.659
			95.878		0.663
			96.161		0.667
			96.443		0.671
			96.726		0.675
			97.009		0.679
			97.292		0.684
			97.575		0.688
			97.858		0.693
			98.141		0.698
			98.423		0.703
			98.706		0.708
			98.989		0.714
			99.272		0.719
			99.555		0.725
			99.838		0.731
			100.12		0.738
			100.403		0.744
			100.686		0.751
			100.969		0.759
			101.252		0.766
			101.534		0.774
			101.817		0.782
			102.1		0.79
			102.383		0.799
			102.666		0.808
			102.949		0.818
			103.231		0.828
			103.514		0.838
			103.797		0.849
			104.08		0.86
			104.363		0.872
			104.645		0.884
			104.928		0.897
			105.211		0.91
			105.494		0.924
			105.777		0.938
			106.06		0.953
			106.342		0.969
			106.625		0.986
			106.908		1.004
			107.191		1.023
			107.474		1.043
			107.757		1.064
			108.039		1.086
			108.322		1.11
			108.605		1.135
			108.888		1.161
			109.171		1.189
			109.454		1.218
			109.736		1.248
			110.019		1.278
			110.302		1.309
			110.585		1.338
			110.868		1.365
			111.15		1.389
			111.433		1.409
			111.716		1.423
			111.999		1.431
			112.282		1.431
			112.565		1.423
			112.847		1.405
			113.13		1.376
			113.413		1.338
			113.696		1.289
			113.979		1.231
			114.262		1.164
			114.544		1.091
			114.827		1.011
			115.11		0.928
			115.393		0.842
			115.676		0.756
			115.959		0.671
			116.241		0.589
			116.524		0.512
			116.807		0.44
			117.09		0.374
			117.373		0.314
			117.655		0.261
			117.938		0.215
			118.221		0.176
			118.504		0.142
			118.787		0.114
			119.07		0.091
			119.352		0.072
			119.635		0.057
			119.918		0.045
			120.201		0.036
			120.484		0.028
			120.767		0.022
			121.049		0.018
			121.332		0.014
			121.615		0.011
			121.898		0.009
			122.181		0.007
			122.464		0.006
			122.746		0.005
			123.029		0.004
			123.312		0.003
			123.595		0.003
			123.878		0.002
			124.16		0.002
			124.443		0.002
			124.726		0.001
			125.009		0.001
			125.292		0.001
			125.575		0.001
			125.857		0.001
			126.14		0
			126.423		0
			126.706		0
			126.989		0
			127.272		0
			127.554		0
			127.837		0
			128.12		0
			128.403		0
			128.686		0
			128.968		0
			129.251		0
			129.534		0
			129.817		0
			130.1		0
			130.383		0
			130.665		0
			130.948		0
			131.231		0
			131.514		0
			131.797		0
			132.08		0
			132.362		0
			132.645		0
			132.928		0
			133.211		0
			133.494		0
			133.777		0
			134.059		0
			134.342		0
			134.625		0
			134.908		0
			135.191		0
			135.473		0
			135.756		0
			136.039		0
			136.322		0
			136.605		0
			136.888		0
			137.17		0
			137.453		0
			137.736		0
			138.019		0
			138.302		0
			138.585		0
			138.867		0
			139.15		0
			139.433		0
			139.716		0
			139.999		0
			140.282		0
			140.564		0
			140.847		0
			141.13		0
		END_DATA
	END_SCAN  1
END_SCAN_DATA
