BEGIN_SCAN_DATA
	FORMAT=CC-Export V1.9                  
	FILE_CREATION_DATE=15-Aug-2018 12:26:11
	LAST_MODIFIED=15-Aug-2018 12:26:11
	BEGIN_SCAN  1
		TASK_NAME=tba PDD Profiles
		PROGRAM=tbaScan
		MEAS_DATE=15-Aug-2018 12:24:28
		LINAC=VARIAN PT
		MODALITY=P
		ISOCENTER=2500.00
		INPLANE_AXIS=Inplane
		CROSSPLANE_AXIS=Crossplane
		DEPTH_AXIS=Depth
		INPLANE_AXIS_DIR=GUN_TARGET
		CROSSPLANE_AXIS_DIR=LEFT_RIGHT
		DEPTH_AXIS_DIR=UP_DOWN
		ENERGY=130.00
		NOMINAL_DMAX=120.00
		SSD=2500.00
		SCD=1000.00
		BLOCK=0
		WEDGE_ANGLE=0.00
		FIELD_INPLANE=100.00
		FIELD_CROSSPLANE=100.00
		FIELD_TYPE=RECTANGULAR
		GANTRY=270.00
		GANTRY_UPRIGHT_POSITION=0
		GANTRY_ROTATION=CW
		COLL_ANGLE=0.00
		COLL_OFFSET_INPLANE=0.00
		COLL_OFFSET_CROSSPLANE=0.00
		SCAN_DEVICE=MP3
		SCAN_DEVICE_SETUP=BARA_LEFT_RIGHT
		ELECTROMETER=TANDEM_XDR
		RANGE_FIELD=HIGH
		RANGE_REFERENCE=AUTO
		DETECTOR=PLANE_PARALLEL_CHAMBER
		DETECTOR_RADIUS=0.00
		DETECTOR_NAME=PTW 34070 Bragg-Peak
		DETECTOR_SN=0000
		DETECTOR_CALIBRATION=1100000000.00
		DETECTOR_IS_CALIBRATED=0
		DETECTOR_REFERENCE=PLANE_PARALLEL_CHAMBER
		DETECTOR_REFERENCE_RADIUS=0.00
		DETECTOR_REFERENCE_NAME=PTW 34070 Bragg-Peak
		DETECTOR_REFERENCE_SN=0000
		DETECTOR_REFERENCE_IS_CALIBRATED=0
		DETECTOR_REFERENCE_CALIBRATION=1100000000.00
		DETECTOR_HV=400.0
		DETECTOR_REFERENCE_HV=400.0
		FILTER=FF
		REF_FIELD_DEPTH=0.00
		REF_FIELD_DEFINED=ISOCENTER
		REF_FIELD_INPLANE=40.00
		REF_FIELD_CROSSPLANE=40.00
		REF_SCAN_POSITIONS=0.00;1.00;2.00;3.00;4.00;5.00;6.00;7.00;8.00;9.00;10.00;11.00;12.00;13.00;14.00;15.00;16.00;17.00;18.00;19.00;20.00;21.00;22.00;23.00;24.00;25.00;26.00;27.00;28.00;29.00;30.00;31.00;32.00;33.00;34.00;35.00;36.00;37.00;38.00;39.00;40.00;41.00;42.00;43.00;44.00;45.00;46.00;47.00;48.00;49.00;50.00;51.00;52.00;53.00;54.00;55.00;56.00;57.00;58.00;59.00;60.00;61.00;62.00;63.00;64.00;65.00;66.00;67.00;68.00;69.00;70.00;71.00;72.00;73.00;74.00;75.00;76.00;77.00;78.00;79.00;80.00;81.00;82.00;83.00;84.00;85.00;86.00;87.00;88.00;89.00;90.00;91.00;92.00;93.00;94.00;95.00;96.00;97.00;98.00;99.00;100.00;101.00;102.00;103.00;104.00;105.00;106.00;107.00;108.00;109.00;110.00;
		SCAN_CURVETYPE=PDD
		SCAN_OFFAXIS_INPLANE=0.00
		SCAN_OFFAXIS_CROSSPLANE=0.00
		SCAN_ANGLE=0.00
		SCAN_DIAGONAL=NOT_DIAGONAL
		SCAN_DIRECTION=NEGATIVE
		MEAS_MEDIUM=WATER
		MEAS_PRESET=REFERENCE_DOSEMETER
		MEAS_TIME=0.100
		MEAS_UNIT=A.U.
		SCAN_SPEEDS=50.00; 1.00;150.00; 16.00;999.00; 50.00;
		DELAY_TIMES=50.00; 0.800;150.00; 0.400;999.90; 0.000;
		PRESSURE=1013.25
		TEMPERATURE=20.00
		NORM_TEMPERATURE=20.00
		CORRECTION_FACTOR=1.0000
		EXPECTED_MAX_DOSE_RATE=8.00
		BEGIN_DATA
			0		0.359
			0.305		0.359
			0.61		0.359
			0.915		0.359
			1.219		0.359
			1.524		0.359
			1.829		0.358
			2.134		0.358
			2.439		0.358
			2.744		0.358
			3.049		0.358
			3.354		0.358
			3.658		0.358
			3.963		0.358
			4.268		0.358
			4.573		0.358
			4.878		0.359
			5.183		0.359
			5.488		0.359
			5.793		0.359
			6.097		0.359
			6.402		0.359
			6.707		0.359
			7.012		0.359
			7.317		0.36
			7.622		0.36
			7.927		0.36
			8.231		0.36
			8.536		0.36
			8.841		0.361
			9.146		0.361
			9.451		0.361
			9.756		0.361
			10.061		0.361
			10.366		0.362
			10.67		0.362
			10.975		0.362
			11.28		0.363
			11.585		0.363
			11.89		0.363
			12.195		0.363
			12.5		0.364
			12.804		0.364
			13.109		0.364
			13.414		0.365
			13.719		0.365
			14.024		0.365
			14.329		0.365
			14.634		0.366
			14.939		0.366
			15.243		0.366
			15.548		0.367
			15.853		0.367
			16.158		0.367
			16.463		0.368
			16.768		0.368
			17.073		0.368
			17.378		0.368
			17.682		0.369
			17.987		0.369
			18.292		0.369
			18.597		0.37
			18.902		0.37
			19.207		0.37
			19.512		0.37
			19.816		0.371
			20.121		0.371
			20.426		0.371
			20.731		0.372
			21.036		0.372
			21.341		0.372
			21.646		0.372
			21.951		0.373
			22.256		0.373
			22.56		0.373
			22.865		0.374
			23.17		0.374
			23.475		0.374
			23.78		0.374
			24.085		0.375
			24.39		0.375
			24.694		0.375
			24.999		0.376
			25.304		0.376
			25.609		0.376
			25.914		0.376
			26.219		0.377
			26.524		0.377
			26.829		0.377
			27.133		0.378
			27.438		0.378
			27.743		0.378
			28.048		0.379
			28.353		0.379
			28.658		0.379
			28.963		0.38
			29.267		0.38
			29.572		0.38
			29.877		0.381
			30.182		0.381
			30.487		0.381
			30.792		0.382
			31.097		0.382
			31.402		0.382
			31.706		0.383
			32.011		0.383
			32.316		0.384
			32.621		0.384
			32.926		0.384
			33.231		0.385
			33.536		0.385
			33.84		0.386
			34.145		0.386
			34.45		0.387
			34.755		0.387
			35.06		0.387
			35.365		0.388
			35.67		0.388
			35.975		0.389
			36.279		0.389
			36.584		0.39
			36.889		0.39
			37.194		0.391
			37.499		0.391
			37.804		0.392
			38.109		0.392
			38.414		0.393
			38.718		0.393
			39.023		0.394
			39.328		0.394
			39.633		0.395
			39.938		0.395
			40.243		0.396
			40.548		0.396
			40.853		0.397
			41.157		0.397
			41.462		0.398
			41.767		0.398
			42.072		0.399
			42.377		0.4
			42.682		0.4
			42.987		0.401
			43.292		0.401
			43.596		0.402
			43.901		0.403
			44.206		0.403
			44.511		0.404
			44.816		0.404
			45.121		0.405
			45.426		0.406
			45.73		0.406
			46.035		0.407
			46.34		0.408
			46.645		0.408
			46.95		0.409
			47.255		0.409
			47.56		0.41
			47.864		0.411
			48.169		0.411
			48.474		0.412
			48.779		0.413
			49.084		0.414
			49.389		0.414
			49.694		0.415
			49.999		0.416
			50.304		0.416
			50.608		0.417
			50.913		0.418
			51.218		0.419
			51.523		0.419
			51.828		0.42
			52.133		0.421
			52.438		0.422
			52.743		0.422
			53.047		0.423
			53.352		0.424
			53.657		0.425
			53.962		0.425
			54.267		0.426
			54.572		0.427
			54.877		0.428
			55.181		0.429
			55.486		0.429
			55.791		0.43
			56.096		0.431
			56.401		0.432
			56.706		0.433
			57.011		0.434
			57.315		0.434
			57.62		0.435
			57.925		0.436
			58.23		0.437
			58.535		0.438
			58.84		0.439
			59.145		0.44
			59.45		0.44
			59.755		0.441
			60.059		0.442
			60.364		0.443
			60.669		0.444
			60.974		0.445
			61.279		0.446
			61.584		0.447
			61.889		0.448
			62.193		0.449
			62.498		0.45
			62.803		0.451
			63.108		0.452
			63.413		0.452
			63.718		0.453
			64.023		0.454
			64.327		0.455
			64.632		0.456
			64.937		0.457
			65.242		0.458
			65.547		0.459
			65.852		0.46
			66.157		0.461
			66.462		0.462
			66.767		0.463
			67.071		0.464
			67.376		0.465
			67.681		0.466
			67.986		0.467
			68.291		0.468
			68.596		0.469
			68.901		0.471
			69.205		0.472
			69.51		0.473
			69.815		0.474
			70.12		0.475
			70.425		0.476
			70.73		0.477
			71.035		0.478
			71.34		0.479
			71.644		0.48
			71.949		0.481
			72.254		0.482
			72.559		0.484
			72.864		0.485
			73.169		0.486
			73.474		0.487
			73.779		0.488
			74.083		0.489
			74.388		0.49
			74.693		0.491
			74.998		0.493
			75.303		0.494
			75.608		0.495
			75.913		0.496
			76.217		0.497
			76.522		0.498
			76.827		0.5
			77.132		0.501
			77.437		0.502
			77.742		0.503
			78.047		0.504
			78.352		0.506
			78.656		0.507
			78.961		0.508
			79.266		0.509
			79.571		0.511
			79.876		0.512
			80.181		0.513
			80.486		0.514
			80.79		0.516
			81.095		0.517
			81.4		0.518
			81.705		0.519
			82.01		0.521
			82.315		0.522
			82.62		0.523
			82.925		0.525
			83.229		0.526
			83.534		0.527
			83.839		0.529
			84.144		0.53
			84.449		0.531
			84.754		0.533
			85.059		0.534
			85.364		0.536
			85.668		0.537
			85.973		0.538
			86.278		0.54
			86.583		0.541
			86.888		0.543
			87.193		0.544
			87.498		0.546
			87.802		0.547
			88.107		0.549
			88.412		0.55
			88.717		0.552
			89.022		0.553
			89.327		0.555
			89.632		0.556
			89.937		0.558
			90.241		0.559
			90.546		0.561
			90.851		0.563
			91.156		0.564
			91.461		0.566
			91.766		0.568
			92.071		0.57
			92.376		0.571
			92.68		0.573
			92.985		0.575
			93.29		0.577
			93.595		0.579
			93.9		0.58
			94.205		0.582
			94.51		0.584
			94.814		0.586
			95.119		0.588
			95.424		0.59
			95.729		0.592
			96.034		0.594
			96.339		0.597
			96.644		0.599
			96.949		0.601
			97.253		0.603
			97.558		0.606
			97.863		0.608
			98.168		0.611
			98.473		0.613
			98.778		0.616
			99.083		0.618
			99.387		0.621
			99.692		0.624
			99.997		0.627
			100.302		0.63
			100.607		0.633
			100.912		0.636
			101.217		0.639
			101.522		0.642
			101.826		0.646
			102.131		0.649
			102.436		0.653
			102.741		0.656
			103.046		0.66
			103.351		0.664
			103.656		0.668
			103.961		0.672
			104.265		0.677
			104.57		0.681
			104.875		0.686
			105.18		0.691
			105.485		0.696
			105.79		0.701
			106.095		0.706
			106.4		0.712
			106.704		0.718
			107.009		0.724
			107.314		0.73
			107.619		0.736
			107.924		0.743
			108.229		0.75
			108.534		0.758
			108.838		0.765
			109.143		0.773
			109.448		0.782
			109.753		0.79
			110.058		0.799
			110.363		0.809
			110.668		0.818
			110.973		0.829
			111.277		0.839
			111.582		0.85
			111.887		0.862
			112.192		0.874
			112.497		0.887
			112.802		0.9
			113.107		0.914
			113.412		0.928
			113.716		0.944
			114.021		0.96
			114.326		0.976
			114.631		0.994
			114.936		1.013
			115.241		1.033
			115.546		1.054
			115.851		1.076
			116.155		1.1
			116.46		1.126
			116.765		1.152
			117.07		1.181
			117.375		1.21
			117.68		1.241
			117.985		1.272
			118.289		1.303
			118.594		1.333
			118.899		1.361
			119.204		1.385
			119.509		1.406
			119.814		1.421
			120.119		1.428
			120.424		1.427
			120.728		1.417
			121.033		1.396
			121.338		1.365
			121.643		1.323
			121.948		1.27
			122.253		1.207
			122.558		1.136
			122.863		1.058
			123.167		0.974
			123.472		0.887
			123.777		0.798
			124.082		0.71
			124.387		0.624
			124.692		0.542
			124.997		0.466
			125.301		0.395
			125.606		0.332
			125.911		0.276
			126.216		0.226
			126.521		0.184
			126.826		0.148
			127.131		0.118
			127.436		0.094
			127.74		0.074
			128.045		0.058
			128.35		0.045
			128.655		0.035
			128.96		0.028
			129.265		0.022
			129.57		0.017
			129.875		0.013
			130.179		0.011
			130.484		0.008
			130.789		0.007
			131.094		0.005
			131.399		0.004
			131.704		0.004
			132.009		0.003
			132.313		0.002
			132.618		0.002
			132.923		0.002
			133.228		0.001
			133.533		0.001
			133.838		0.001
			134.143		0.001
			134.448		0
			134.752		0
			135.057		0
			135.362		0
			135.667		0
			135.972		0
			136.277		0
			136.582		0
			136.887		0
			137.191		0
			137.496		0
			137.801		0
			138.106		0
			138.411		0
			138.716		0
			139.021		0
			139.325		0
			139.63		0
			139.935		0
			140.24		0
			140.545		0
			140.85		0
			141.155		0
			141.46		0
			141.764		0
			142.069		0
			142.374		0
			142.679		0
			142.984		0
			143.289		0
			143.594		0
			143.899		0
			144.203		0
			144.508		0
			144.813		0
			145.118		0
			145.423		0
			145.728		0
			146.033		0
			146.337		0
			146.642		0
			146.947		0
			147.252		0
			147.557		0
			147.862		0
			148.167		0
			148.472		0
			148.776		0
			149.081		0
			149.386		0
			149.691		0
			149.996		0
			150.301		0
			150.606		0
			150.911		0
			151.215		0
			151.52		0
			151.825		0
			152.13		0
		END_DATA
	END_SCAN  1
END_SCAN_DATA
