BEGIN_SCAN_DATA
	FORMAT=CC-Export V1.9                  
	FILE_CREATION_DATE=15-Aug-2018 12:21:57
	LAST_MODIFIED=15-Aug-2018 12:21:57
	BEGIN_SCAN  1
		TASK_NAME=tba PDD Profiles
		PROGRAM=tbaScan
		MEAS_DATE=15-Aug-2018 12:17:38
		LINAC=VARIAN PT
		MODALITY=P
		ISOCENTER=2500.00
		INPLANE_AXIS=Inplane
		CROSSPLANE_AXIS=Crossplane
		DEPTH_AXIS=Depth
		INPLANE_AXIS_DIR=GUN_TARGET
		CROSSPLANE_AXIS_DIR=LEFT_RIGHT
		DEPTH_AXIS_DIR=UP_DOWN
		ENERGY=135.00
		NOMINAL_DMAX=175.00
		SSD=2500.00
		SCD=1000.00
		BLOCK=0
		WEDGE_ANGLE=0.00
		FIELD_INPLANE=100.00
		FIELD_CROSSPLANE=100.00
		FIELD_TYPE=RECTANGULAR
		GANTRY=270.00
		GANTRY_UPRIGHT_POSITION=0
		GANTRY_ROTATION=CW
		COLL_ANGLE=0.00
		COLL_OFFSET_INPLANE=0.00
		COLL_OFFSET_CROSSPLANE=0.00
		SCAN_DEVICE=MP3
		SCAN_DEVICE_SETUP=BARA_LEFT_RIGHT
		ELECTROMETER=TANDEM_XDR
		RANGE_FIELD=HIGH
		RANGE_REFERENCE=AUTO
		DETECTOR=PLANE_PARALLEL_CHAMBER
		DETECTOR_RADIUS=0.00
		DETECTOR_NAME=PTW 34070 Bragg-Peak
		DETECTOR_SN=0000
		DETECTOR_CALIBRATION=1100000000.00
		DETECTOR_IS_CALIBRATED=0
		DETECTOR_REFERENCE=PLANE_PARALLEL_CHAMBER
		DETECTOR_REFERENCE_RADIUS=0.00
		DETECTOR_REFERENCE_NAME=PTW 34070 Bragg-Peak
		DETECTOR_REFERENCE_SN=0000
		DETECTOR_REFERENCE_IS_CALIBRATED=0
		DETECTOR_REFERENCE_CALIBRATION=1100000000.00
		DETECTOR_HV=400.0
		DETECTOR_REFERENCE_HV=400.0
		FILTER=FF
		REF_FIELD_DEPTH=0.00
		REF_FIELD_DEFINED=ISOCENTER
		REF_FIELD_INPLANE=40.00
		REF_FIELD_CROSSPLANE=40.00
		REF_SCAN_POSITIONS=0.00;1.00;2.00;3.00;4.00;5.00;6.00;7.00;8.00;9.00;10.00;11.00;12.00;13.00;14.00;15.00;16.00;17.00;18.00;19.00;20.00;21.00;22.00;23.00;24.00;25.00;26.00;27.00;28.00;29.00;30.00;31.00;32.00;33.00;34.00;35.00;36.00;37.00;38.00;39.00;40.00;41.00;42.00;43.00;44.00;45.00;46.00;47.00;48.00;49.00;50.00;51.00;52.00;53.00;54.00;55.00;56.00;57.00;58.00;59.00;60.00;61.00;62.00;63.00;64.00;65.00;66.00;67.00;68.00;69.00;70.00;71.00;72.00;73.00;74.00;75.00;76.00;77.00;78.00;79.00;80.00;81.00;82.00;83.00;84.00;85.00;86.00;87.00;88.00;89.00;90.00;91.00;92.00;93.00;94.00;95.00;96.00;97.00;98.00;99.00;100.00;101.00;102.00;103.00;104.00;105.00;106.00;107.00;108.00;109.00;110.00;111.00;112.00;113.00;114.00;115.00;116.00;117.00;118.00;119.00;120.00;121.00;122.00;123.00;124.00;125.00;126.00;127.00;128.00;129.00;130.00;131.00;132.00;133.00;134.00;135.00;136.00;137.00;138.00;139.00;140.00;141.00;142.00;143.00;144.00;145.00;146.00;147.00;148.00;149.00;150.00;151.00;152.00;153.00;154.00;155.00;156.00;157.00;158.00;159.00;160.00;161.00;162.00;163.00;164.00;165.00;166.00;167.00;168.00;169.00;170.00;171.00;172.00;173.00;174.00;175.00;176.00;177.00;178.00;179.00;180.00;181.00;182.00;183.00;184.00;185.00;186.00;187.00;188.00;189.00;190.00;
		SCAN_CURVETYPE=PDD
		SCAN_OFFAXIS_INPLANE=0.00
		SCAN_OFFAXIS_CROSSPLANE=0.00
		SCAN_ANGLE=0.00
		SCAN_DIAGONAL=NOT_DIAGONAL
		SCAN_DIRECTION=NEGATIVE
		MEAS_MEDIUM=WATER
		MEAS_PRESET=REFERENCE_DOSEMETER
		MEAS_TIME=0.100
		MEAS_UNIT=A.U.
		SCAN_SPEEDS=50.00; 1.00;150.00; 16.00;999.00; 50.00;
		DELAY_TIMES=50.00; 0.800;150.00; 0.400;999.90; 0.000;
		PRESSURE=1013.25
		TEMPERATURE=20.00
		NORM_TEMPERATURE=20.00
		CORRECTION_FACTOR=1.0000
		EXPECTED_MAX_DOSE_RATE=8.00
		BEGIN_DATA
			0		0.357
			0.327		0.356
			0.653		0.356
			0.98		0.356
			1.307		0.356
			1.633		0.356
			1.96		0.356
			2.287		0.356
			2.614		0.356
			2.94		0.356
			3.267		0.356
			3.594		0.356
			3.92		0.356
			4.247		0.356
			4.574		0.356
			4.9		0.356
			5.227		0.357
			5.554		0.357
			5.88		0.357
			6.207		0.357
			6.534		0.357
			6.861		0.357
			7.187		0.358
			7.514		0.358
			7.841		0.358
			8.167		0.358
			8.494		0.359
			8.821		0.359
			9.147		0.359
			9.474		0.359
			9.801		0.36
			10.127		0.36
			10.454		0.36
			10.781		0.361
			11.108		0.361
			11.434		0.361
			11.761		0.362
			12.088		0.362
			12.414		0.363
			12.741		0.363
			13.068		0.363
			13.394		0.364
			13.721		0.364
			14.048		0.364
			14.375		0.365
			14.701		0.365
			15.028		0.366
			15.355		0.366
			15.681		0.366
			16.008		0.367
			16.335		0.367
			16.661		0.367
			16.988		0.368
			17.315		0.368
			17.641		0.369
			17.968		0.369
			18.295		0.369
			18.622		0.37
			18.948		0.37
			19.275		0.37
			19.602		0.371
			19.928		0.371
			20.255		0.371
			20.582		0.372
			20.908		0.372
			21.235		0.372
			21.562		0.373
			21.889		0.373
			22.215		0.373
			22.542		0.373
			22.868		0.374
			23.195		0.374
			23.522		0.374
			23.849		0.375
			24.175		0.375
			24.502		0.375
			24.829		0.376
			25.155		0.376
			25.482		0.376
			25.809		0.376
			26.135		0.377
			26.462		0.377
			26.789		0.377
			27.116		0.378
			27.442		0.378
			27.769		0.378
			28.096		0.379
			28.422		0.379
			28.749		0.379
			29.076		0.379
			29.402		0.38
			29.729		0.38
			30.056		0.38
			30.382		0.381
			30.709		0.381
			31.036		0.381
			31.363		0.382
			31.689		0.382
			32.016		0.382
			32.343		0.383
			32.669		0.383
			32.996		0.384
			33.323		0.384
			33.649		0.384
			33.976		0.385
			34.303		0.385
			34.63		0.385
			34.956		0.386
			35.283		0.386
			35.61		0.387
			35.936		0.387
			36.263		0.387
			36.59		0.388
			36.916		0.388
			37.243		0.389
			37.57		0.389
			37.896		0.39
			38.223		0.39
			38.55		0.39
			38.876		0.391
			39.203		0.391
			39.53		0.392
			39.857		0.392
			40.183		0.393
			40.51		0.393
			40.837		0.394
			41.163		0.394
			41.49		0.395
			41.817		0.395
			42.143		0.396
			42.47		0.396
			42.797		0.397
			43.124		0.397
			43.45		0.398
			43.777		0.398
			44.104		0.399
			44.43		0.399
			44.757		0.4
			45.084		0.401
			45.41		0.401
			45.737		0.402
			46.064		0.402
			46.39		0.403
			46.717		0.403
			47.044		0.404
			47.37		0.405
			47.697		0.405
			48.024		0.406
			48.351		0.406
			48.677		0.407
			49.004		0.408
			49.331		0.408
			49.657		0.409
			49.984		0.41
			50.311		0.41
			50.638		0.411
			50.964		0.412
			51.291		0.412
			51.618		0.413
			51.944		0.414
			52.271		0.414
			52.598		0.415
			52.924		0.416
			53.251		0.416
			53.578		0.417
			53.904		0.418
			54.231		0.418
			54.558		0.419
			54.884		0.42
			55.211		0.421
			55.538		0.421
			55.865		0.422
			56.191		0.423
			56.518		0.424
			56.845		0.424
			57.171		0.425
			57.498		0.426
			57.825		0.427
			58.151		0.427
			58.478		0.428
			58.805		0.429
			59.132		0.43
			59.458		0.431
			59.785		0.431
			60.112		0.432
			60.438		0.433
			60.765		0.434
			61.092		0.435
			61.418		0.436
			61.745		0.436
			62.072		0.437
			62.398		0.438
			62.725		0.439
			63.052		0.44
			63.379		0.441
			63.705		0.442
			64.032		0.442
			64.359		0.443
			64.685		0.444
			65.012		0.445
			65.339		0.446
			65.665		0.447
			65.992		0.448
			66.319		0.449
			66.646		0.45
			66.972		0.451
			67.299		0.452
			67.626		0.452
			67.952		0.453
			68.279		0.454
			68.606		0.455
			68.932		0.456
			69.259		0.457
			69.586		0.458
			69.912		0.459
			70.239		0.46
			70.566		0.461
			70.893		0.462
			71.219		0.463
			71.546		0.464
			71.872		0.465
			72.199		0.466
			72.526		0.467
			72.853		0.468
			73.179		0.469
			73.506		0.47
			73.833		0.471
			74.159		0.472
			74.486		0.473
			74.813		0.474
			75.14		0.475
			75.466		0.477
			75.793		0.478
			76.12		0.479
			76.446		0.48
			76.773		0.481
			77.1		0.482
			77.426		0.483
			77.753		0.484
			78.08		0.485
			78.406		0.486
			78.733		0.487
			79.06		0.488
			79.386		0.49
			79.713		0.491
			80.04		0.492
			80.367		0.493
			80.693		0.494
			81.02		0.495
			81.347		0.496
			81.673		0.498
			82		0.499
			82.327		0.5
			82.653		0.501
			82.98		0.502
			83.307		0.503
			83.633		0.505
			83.96		0.506
			84.287		0.507
			84.614		0.508
			84.94		0.51
			85.267		0.511
			85.594		0.512
			85.92		0.513
			86.247		0.514
			86.574		0.516
			86.9		0.517
			87.227		0.518
			87.554		0.519
			87.881		0.521
			88.207		0.522
			88.534		0.523
			88.861		0.525
			89.187		0.526
			89.514		0.527
			89.841		0.529
			90.167		0.53
			90.494		0.531
			90.821		0.533
			91.147		0.534
			91.474		0.535
			91.801		0.537
			92.128		0.538
			92.454		0.54
			92.781		0.541
			93.108		0.542
			93.434		0.544
			93.761		0.545
			94.088		0.547
			94.414		0.548
			94.741		0.55
			95.068		0.551
			95.395		0.553
			95.721		0.554
			96.048		0.556
			96.374		0.557
			96.701		0.559
			97.028		0.561
			97.355		0.562
			97.681		0.564
			98.008		0.566
			98.335		0.567
			98.661		0.569
			98.988		0.571
			99.315		0.572
			99.642		0.574
			99.968		0.576
			100.295		0.578
			100.622		0.58
			100.948		0.582
			101.275		0.584
			101.602		0.586
			101.928		0.588
			102.255		0.59
			102.582		0.592
			102.908		0.594
			103.235		0.596
			103.562		0.598
			103.888		0.6
			104.215		0.603
			104.542		0.605
			104.869		0.608
			105.195		0.61
			105.522		0.613
			105.849		0.615
			106.175		0.618
			106.502		0.621
			106.829		0.623
			107.155		0.626
			107.482		0.629
			107.809		0.632
			108.136		0.635
			108.462		0.639
			108.789		0.642
			109.116		0.645
			109.442		0.649
			109.769		0.652
			110.096		0.656
			110.422		0.66
			110.749		0.664
			111.076		0.668
			111.402		0.672
			111.729		0.677
			112.056		0.681
			112.383		0.686
			112.709		0.691
			113.036		0.696
			113.363		0.701
			113.689		0.707
			114.016		0.713
			114.343		0.719
			114.669		0.725
			114.996		0.731
			115.323		0.738
			115.649		0.745
			115.976		0.752
			116.303		0.76
			116.63		0.767
			116.956		0.776
			117.283		0.784
			117.61		0.793
			117.936		0.802
			118.263		0.812
			118.59		0.822
			118.916		0.833
			119.243		0.844
			119.57		0.855
			119.896		0.868
			120.223		0.88
			120.55		0.893
			120.877		0.907
			121.203		0.922
			121.53		0.937
			121.857		0.953
			122.183		0.97
			122.51		0.987
			122.837		1.006
			123.163		1.026
			123.49		1.047
			123.817		1.07
			124.143		1.094
			124.47		1.119
			124.797		1.146
			125.124		1.175
			125.45		1.205
			125.777		1.235
			126.104		1.266
			126.43		1.297
			126.757		1.327
			127.084		1.355
			127.41		1.38
			127.737		1.4
			128.064		1.414
			128.391		1.42
			128.717		1.418
			129.044		1.406
			129.371		1.384
			129.697		1.351
			130.024		1.306
			130.351		1.251
			130.677		1.186
			131.004		1.113
			131.331		1.032
			131.657		0.947
			131.984		0.859
			132.311		0.77
			132.638		0.681
			132.964		0.596
			133.291		0.515
			133.618		0.44
			133.944		0.371
			134.271		0.31
			134.598		0.256
			134.924		0.209
			135.251		0.168
			135.578		0.135
			135.904		0.107
			136.231		0.084
			136.558		0.066
			136.885		0.051
			137.211		0.04
			137.538		0.031
			137.865		0.024
			138.191		0.018
			138.518		0.014
			138.845		0.011
			139.171		0.009
			139.498		0.007
			139.825		0.005
			140.151		0.004
			140.478		0.003
			140.805		0.003
			141.132		0.002
			141.458		0.002
			141.785		0.001
			142.112		0.001
			142.438		0.001
			142.765		0.001
			143.092		0.001
			143.418		0
			143.745		0
			144.072		0
			144.398		0
			144.725		0
			145.052		0
			145.379		0
			145.705		0
			146.032		0
			146.359		0
			146.685		0
			147.012		0
			147.339		0
			147.665		0
			147.992		0
			148.319		0
			148.645		0
			148.972		0
			149.299		0
			149.626		0
			149.952		0
			150.279		0
			150.606		0
			150.932		0
			151.259		0
			151.586		0
			151.912		0
			152.239		0
			152.566		0
			152.893		0
			153.219		0
			153.546		0
			153.873		0
			154.199		0
			154.526		0
			154.853		0
			155.179		0
			155.506		0
			155.833		0
			156.159		0
			156.486		0
			156.813		0
			157.14		0
			157.466		0
			157.793		0
			158.12		0
			158.446		0
			158.773		0
			159.1		0
			159.426		0
			159.753		0
			160.08		0
			160.406		0
			160.733		0
			161.06		0
			161.387		0
			161.713		0
			162.04		0
			162.367		0
			162.693		0
			163.02		0
		END_DATA
	END_SCAN  1
END_SCAN_DATA
