BEGIN_SCAN_DATA
	FORMAT=CC-Export V1.9                  
	FILE_CREATION_DATE=15-Aug-2018 12:21:57
	LAST_MODIFIED=15-Aug-2018 12:21:57
	BEGIN_SCAN  1
		TASK_NAME=tba PDD Profiles
		PROGRAM=tbaScan
		MEAS_DATE=15-Aug-2018 12:17:38
		LINAC=VARIAN PT
		MODALITY=P
		ISOCENTER=2500.00
		INPLANE_AXIS=Inplane
		CROSSPLANE_AXIS=Crossplane
		DEPTH_AXIS=Depth
		INPLANE_AXIS_DIR=GUN_TARGET
		CROSSPLANE_AXIS_DIR=LEFT_RIGHT
		DEPTH_AXIS_DIR=UP_DOWN
		ENERGY=140.00
		NOMINAL_DMAX=175.00
		SSD=2500.00
		SCD=1000.00
		BLOCK=0
		WEDGE_ANGLE=0.00
		FIELD_INPLANE=100.00
		FIELD_CROSSPLANE=100.00
		FIELD_TYPE=RECTANGULAR
		GANTRY=270.00
		GANTRY_UPRIGHT_POSITION=0
		GANTRY_ROTATION=CW
		COLL_ANGLE=0.00
		COLL_OFFSET_INPLANE=0.00
		COLL_OFFSET_CROSSPLANE=0.00
		SCAN_DEVICE=MP3
		SCAN_DEVICE_SETUP=BARA_LEFT_RIGHT
		ELECTROMETER=TANDEM_XDR
		RANGE_FIELD=HIGH
		RANGE_REFERENCE=AUTO
		DETECTOR=PLANE_PARALLEL_CHAMBER
		DETECTOR_RADIUS=0.00
		DETECTOR_NAME=PTW 34070 Bragg-Peak
		DETECTOR_SN=0000
		DETECTOR_CALIBRATION=1100000000.00
		DETECTOR_IS_CALIBRATED=0
		DETECTOR_REFERENCE=PLANE_PARALLEL_CHAMBER
		DETECTOR_REFERENCE_RADIUS=0.00
		DETECTOR_REFERENCE_NAME=PTW 34070 Bragg-Peak
		DETECTOR_REFERENCE_SN=0000
		DETECTOR_REFERENCE_IS_CALIBRATED=0
		DETECTOR_REFERENCE_CALIBRATION=1100000000.00
		DETECTOR_HV=400.0
		DETECTOR_REFERENCE_HV=400.0
		FILTER=FF
		REF_FIELD_DEPTH=0.00
		REF_FIELD_DEFINED=ISOCENTER
		REF_FIELD_INPLANE=40.00
		REF_FIELD_CROSSPLANE=40.00
		REF_SCAN_POSITIONS=0.00;1.00;2.00;3.00;4.00;5.00;6.00;7.00;8.00;9.00;10.00;11.00;12.00;13.00;14.00;15.00;16.00;17.00;18.00;19.00;20.00;21.00;22.00;23.00;24.00;25.00;26.00;27.00;28.00;29.00;30.00;31.00;32.00;33.00;34.00;35.00;36.00;37.00;38.00;39.00;40.00;41.00;42.00;43.00;44.00;45.00;46.00;47.00;48.00;49.00;50.00;51.00;52.00;53.00;54.00;55.00;56.00;57.00;58.00;59.00;60.00;61.00;62.00;63.00;64.00;65.00;66.00;67.00;68.00;69.00;70.00;71.00;72.00;73.00;74.00;75.00;76.00;77.00;78.00;79.00;80.00;81.00;82.00;83.00;84.00;85.00;86.00;87.00;88.00;89.00;90.00;91.00;92.00;93.00;94.00;95.00;96.00;97.00;98.00;99.00;100.00;101.00;102.00;103.00;104.00;105.00;106.00;107.00;108.00;109.00;110.00;111.00;112.00;113.00;114.00;115.00;116.00;117.00;118.00;119.00;120.00;121.00;122.00;123.00;124.00;125.00;126.00;127.00;128.00;129.00;130.00;131.00;132.00;133.00;134.00;135.00;136.00;137.00;138.00;139.00;140.00;141.00;142.00;143.00;144.00;145.00;146.00;147.00;148.00;149.00;150.00;151.00;152.00;153.00;154.00;155.00;156.00;157.00;158.00;159.00;160.00;161.00;162.00;163.00;164.00;165.00;166.00;167.00;168.00;169.00;170.00;171.00;172.00;173.00;174.00;175.00;176.00;177.00;178.00;179.00;180.00;181.00;182.00;183.00;184.00;185.00;186.00;187.00;188.00;189.00;190.00;
		SCAN_CURVETYPE=PDD
		SCAN_OFFAXIS_INPLANE=0.00
		SCAN_OFFAXIS_CROSSPLANE=0.00
		SCAN_ANGLE=0.00
		SCAN_DIAGONAL=NOT_DIAGONAL
		SCAN_DIRECTION=NEGATIVE
		MEAS_MEDIUM=WATER
		MEAS_PRESET=REFERENCE_DOSEMETER
		MEAS_TIME=0.100
		MEAS_UNIT=A.U.
		SCAN_SPEEDS=50.00; 1.00;150.00; 16.00;999.00; 50.00;
		DELAY_TIMES=50.00; 0.800;150.00; 0.400;999.90; 0.000;
		PRESSURE=1013.25
		TEMPERATURE=20.00
		NORM_TEMPERATURE=20.00
		CORRECTION_FACTOR=1.0000
		EXPECTED_MAX_DOSE_RATE=8.00
		BEGIN_DATA
			0		0.353
			0.349		0.353
			0.697		0.353
			1.046		0.353
			1.395		0.353
			1.744		0.353
			2.092		0.353
			2.441		0.353
			2.79		0.353
			3.139		0.353
			3.487		0.353
			3.836		0.353
			4.185		0.353
			4.534		0.353
			4.882		0.353
			5.231		0.354
			5.58		0.354
			5.929		0.354
			6.277		0.354
			6.626		0.354
			6.975		0.355
			7.323		0.355
			7.672		0.355
			8.021		0.356
			8.37		0.356
			8.718		0.356
			9.067		0.357
			9.416		0.357
			9.765		0.357
			10.113		0.358
			10.462		0.358
			10.811		0.358
			11.16		0.359
			11.508		0.359
			11.857		0.36
			12.206		0.36
			12.554		0.361
			12.903		0.361
			13.252		0.362
			13.601		0.362
			13.95		0.362
			14.298		0.363
			14.647		0.363
			14.996		0.364
			15.344		0.364
			15.693		0.365
			16.042		0.365
			16.391		0.366
			16.739		0.366
			17.088		0.367
			17.437		0.367
			17.786		0.367
			18.134		0.368
			18.483		0.368
			18.832		0.369
			19.181		0.369
			19.529		0.37
			19.878		0.37
			20.227		0.37
			20.576		0.371
			20.924		0.371
			21.273		0.371
			21.622		0.372
			21.971		0.372
			22.319		0.372
			22.668		0.373
			23.017		0.373
			23.365		0.373
			23.714		0.374
			24.063		0.374
			24.412		0.374
			24.76		0.375
			25.109		0.375
			25.458		0.375
			25.807		0.376
			26.155		0.376
			26.504		0.376
			26.853		0.377
			27.201		0.377
			27.55		0.377
			27.899		0.377
			28.248		0.378
			28.597		0.378
			28.945		0.378
			29.294		0.379
			29.643		0.379
			29.991		0.379
			30.34		0.38
			30.689		0.38
			31.038		0.38
			31.386		0.38
			31.735		0.381
			32.084		0.381
			32.433		0.381
			32.781		0.382
			33.13		0.382
			33.479		0.382
			33.827		0.383
			34.176		0.383
			34.525		0.383
			34.874		0.384
			35.222		0.384
			35.571		0.385
			35.92		0.385
			36.269		0.385
			36.617		0.386
			36.966		0.386
			37.315		0.386
			37.664		0.387
			38.012		0.387
			38.361		0.388
			38.71		0.388
			39.059		0.388
			39.407		0.389
			39.756		0.389
			40.105		0.39
			40.453		0.39
			40.802		0.391
			41.151		0.391
			41.5		0.391
			41.848		0.392
			42.197		0.392
			42.546		0.393
			42.895		0.393
			43.243		0.394
			43.592		0.394
			43.941		0.395
			44.29		0.395
			44.638		0.396
			44.987		0.396
			45.336		0.397
			45.685		0.397
			46.033		0.398
			46.382		0.398
			46.731		0.399
			47.08		0.399
			47.428		0.4
			47.777		0.4
			48.126		0.401
			48.474		0.401
			48.823		0.402
			49.172		0.403
			49.521		0.403
			49.869		0.404
			50.218		0.404
			50.567		0.405
			50.916		0.406
			51.264		0.406
			51.613		0.407
			51.962		0.407
			52.311		0.408
			52.659		0.409
			53.008		0.409
			53.357		0.41
			53.706		0.41
			54.054		0.411
			54.403		0.412
			54.752		0.412
			55.1		0.413
			55.449		0.414
			55.798		0.414
			56.147		0.415
			56.495		0.416
			56.844		0.416
			57.193		0.417
			57.542		0.418
			57.89		0.419
			58.239		0.419
			58.588		0.42
			58.937		0.421
			59.285		0.421
			59.634		0.422
			59.983		0.423
			60.332		0.424
			60.68		0.424
			61.029		0.425
			61.378		0.426
			61.727		0.427
			62.075		0.427
			62.424		0.428
			62.773		0.429
			63.121		0.43
			63.47		0.431
			63.819		0.431
			64.168		0.432
			64.516		0.433
			64.865		0.434
			65.214		0.435
			65.563		0.435
			65.911		0.436
			66.26		0.437
			66.609		0.438
			66.958		0.439
			67.306		0.44
			67.655		0.44
			68.004		0.441
			68.353		0.442
			68.701		0.443
			69.05		0.444
			69.399		0.445
			69.747		0.446
			70.096		0.447
			70.445		0.447
			70.794		0.448
			71.142		0.449
			71.491		0.45
			71.84		0.451
			72.189		0.452
			72.537		0.453
			72.886		0.454
			73.235		0.455
			73.584		0.456
			73.932		0.457
			74.281		0.458
			74.63		0.459
			74.979		0.459
			75.327		0.46
			75.676		0.461
			76.025		0.462
			76.373		0.463
			76.722		0.464
			77.071		0.465
			77.42		0.466
			77.769		0.467
			78.117		0.468
			78.466		0.469
			78.815		0.47
			79.163		0.471
			79.512		0.472
			79.861		0.473
			80.21		0.474
			80.558		0.475
			80.907		0.477
			81.256		0.478
			81.605		0.479
			81.953		0.48
			82.302		0.481
			82.651		0.482
			82.999		0.483
			83.348		0.484
			83.697		0.485
			84.046		0.486
			84.395		0.487
			84.743		0.488
			85.092		0.489
			85.441		0.491
			85.789		0.492
			86.138		0.493
			86.487		0.494
			86.836		0.495
			87.184		0.496
			87.533		0.497
			87.882		0.498
			88.231		0.5
			88.579		0.501
			88.928		0.502
			89.277		0.503
			89.626		0.504
			89.974		0.505
			90.323		0.507
			90.672		0.508
			91.021		0.509
			91.369		0.51
			91.718		0.511
			92.067		0.513
			92.415		0.514
			92.764		0.515
			93.113		0.516
			93.462		0.518
			93.81		0.519
			94.159		0.52
			94.508		0.521
			94.857		0.523
			95.205		0.524
			95.554		0.525
			95.903		0.526
			96.252		0.528
			96.6		0.529
			96.949		0.53
			97.298		0.532
			97.646		0.533
			97.995		0.534
			98.344		0.536
			98.693		0.537
			99.041		0.539
			99.39		0.54
			99.739		0.541
			100.088		0.543
			100.436		0.544
			100.785		0.546
			101.134		0.547
			101.483		0.549
			101.831		0.55
			102.18		0.552
			102.529		0.553
			102.878		0.555
			103.226		0.556
			103.575		0.558
			103.924		0.559
			104.273		0.561
			104.621		0.563
			104.97		0.564
			105.319		0.566
			105.667		0.568
			106.016		0.57
			106.365		0.571
			106.714		0.573
			107.062		0.575
			107.411		0.577
			107.76		0.579
			108.109		0.58
			108.457		0.582
			108.806		0.584
			109.155		0.586
			109.504		0.588
			109.852		0.591
			110.201		0.593
			110.55		0.595
			110.899		0.597
			111.247		0.599
			111.596		0.602
			111.945		0.604
			112.293		0.606
			112.642		0.609
			112.991		0.612
			113.34		0.614
			113.688		0.617
			114.037		0.62
			114.386		0.622
			114.735		0.625
			115.083		0.628
			115.432		0.631
			115.781		0.635
			116.13		0.638
			116.478		0.641
			116.827		0.645
			117.176		0.648
			117.525		0.652
			117.873		0.656
			118.222		0.66
			118.571		0.664
			118.919		0.668
			119.268		0.673
			119.617		0.677
			119.966		0.682
			120.314		0.687
			120.663		0.692
			121.012		0.697
			121.361		0.702
			121.709		0.708
			122.058		0.714
			122.407		0.72
			122.756		0.727
			123.104		0.733
			123.453		0.74
			123.802		0.747
			124.151		0.755
			124.499		0.763
			124.848		0.771
			125.197		0.779
			125.545		0.788
			125.894		0.797
			126.243		0.807
			126.592		0.817
			126.94		0.828
			127.289		0.839
			127.638		0.85
			127.987		0.862
			128.335		0.875
			128.684		0.888
			129.033		0.902
			129.382		0.917
			129.73		0.932
			130.079		0.948
			130.428		0.965
			130.777		0.983
			131.125		1.002
			131.474		1.022
			131.823		1.044
			132.172		1.067
			132.52		1.091
			132.869		1.117
			133.218		1.145
			133.566		1.174
			133.915		1.204
			134.264		1.235
			134.613		1.267
			134.961		1.298
			135.31		1.328
			135.659		1.355
			136.008		1.379
			136.356		1.398
			136.705		1.41
			137.054		1.413
			137.403		1.408
			137.751		1.392
			138.1		1.365
			138.449		1.327
			138.798		1.277
			139.146		1.217
			139.495		1.147
			139.844		1.07
			140.192		0.985
			140.541		0.897
			140.89		0.807
			141.239		0.717
			141.587		0.629
			141.936		0.545
			142.285		0.467
			142.634		0.394
			142.982		0.329
			143.331		0.272
			143.68		0.222
			144.029		0.179
			144.377		0.143
			144.726		0.113
			145.075		0.089
			145.424		0.069
			145.772		0.053
			146.121		0.041
			146.47		0.032
			146.818		0.024
			147.167		0.019
			147.516		0.014
			147.865		0.011
			148.213		0.009
			148.562		0.007
			148.911		0.005
			149.26		0.004
			149.608		0.003
			149.957		0.002
			150.306		0.002
			150.655		0.002
			151.003		0.001
			151.352		0.001
			151.701		0.001
			152.05		0.001
			152.398		0
			152.747		0
			153.096		0
			153.444		0
			153.793		0
			154.142		0
			154.491		0
			154.839		0
			155.188		0
			155.537		0
			155.886		0
			156.234		0
			156.583		0
			156.932		0
			157.281		0
			157.629		0
			157.978		0
			158.327		0
			158.676		0
			159.024		0
			159.373		0
			159.722		0
			160.071		0
			160.419		0
			160.768		0
			161.117		0
			161.465		0
			161.814		0
			162.163		0
			162.512		0
			162.86		0
			163.209		0
			163.558		0
			163.907		0
			164.255		0
			164.604		0
			164.953		0
			165.302		0
			165.65		0
			165.999		0
			166.348		0
			166.697		0
			167.045		0
			167.394		0
			167.743		0
			168.091		0
			168.44		0
			168.789		0
			169.138		0
			169.486		0
			169.835		0
			170.184		0
			170.533		0
			170.881		0
			171.23		0
			171.579		0
			171.928		0
			172.276		0
			172.625		0
			172.974		0
			173.323		0
			173.671		0
			174.02		0
		END_DATA
	END_SCAN  1
END_SCAN_DATA
