BEGIN_SCAN_DATA
	FORMAT=CC-Export V1.9                  
	FILE_CREATION_DATE=15-Aug-2018 12:21:57
	LAST_MODIFIED=15-Aug-2018 12:21:57
	BEGIN_SCAN  1
		TASK_NAME=tba PDD Profiles
		PROGRAM=tbaScan
		MEAS_DATE=15-Aug-2018 12:17:38
		LINAC=VARIAN PT
		MODALITY=P
		ISOCENTER=2500.00
		INPLANE_AXIS=Inplane
		CROSSPLANE_AXIS=Crossplane
		DEPTH_AXIS=Depth
		INPLANE_AXIS_DIR=GUN_TARGET
		CROSSPLANE_AXIS_DIR=LEFT_RIGHT
		DEPTH_AXIS_DIR=UP_DOWN
		ENERGY=145.00
		NOMINAL_DMAX=175.00
		SSD=2500.00
		SCD=1000.00
		BLOCK=0
		WEDGE_ANGLE=0.00
		FIELD_INPLANE=100.00
		FIELD_CROSSPLANE=100.00
		FIELD_TYPE=RECTANGULAR
		GANTRY=270.00
		GANTRY_UPRIGHT_POSITION=0
		GANTRY_ROTATION=CW
		COLL_ANGLE=0.00
		COLL_OFFSET_INPLANE=0.00
		COLL_OFFSET_CROSSPLANE=0.00
		SCAN_DEVICE=MP3
		SCAN_DEVICE_SETUP=BARA_LEFT_RIGHT
		ELECTROMETER=TANDEM_XDR
		RANGE_FIELD=HIGH
		RANGE_REFERENCE=AUTO
		DETECTOR=PLANE_PARALLEL_CHAMBER
		DETECTOR_RADIUS=0.00
		DETECTOR_NAME=PTW 34070 Bragg-Peak
		DETECTOR_SN=0000
		DETECTOR_CALIBRATION=1100000000.00
		DETECTOR_IS_CALIBRATED=0
		DETECTOR_REFERENCE=PLANE_PARALLEL_CHAMBER
		DETECTOR_REFERENCE_RADIUS=0.00
		DETECTOR_REFERENCE_NAME=PTW 34070 Bragg-Peak
		DETECTOR_REFERENCE_SN=0000
		DETECTOR_REFERENCE_IS_CALIBRATED=0
		DETECTOR_REFERENCE_CALIBRATION=1100000000.00
		DETECTOR_HV=400.0
		DETECTOR_REFERENCE_HV=400.0
		FILTER=FF
		REF_FIELD_DEPTH=0.00
		REF_FIELD_DEFINED=ISOCENTER
		REF_FIELD_INPLANE=40.00
		REF_FIELD_CROSSPLANE=40.00
		REF_SCAN_POSITIONS=0.00;1.00;2.00;3.00;4.00;5.00;6.00;7.00;8.00;9.00;10.00;11.00;12.00;13.00;14.00;15.00;16.00;17.00;18.00;19.00;20.00;21.00;22.00;23.00;24.00;25.00;26.00;27.00;28.00;29.00;30.00;31.00;32.00;33.00;34.00;35.00;36.00;37.00;38.00;39.00;40.00;41.00;42.00;43.00;44.00;45.00;46.00;47.00;48.00;49.00;50.00;51.00;52.00;53.00;54.00;55.00;56.00;57.00;58.00;59.00;60.00;61.00;62.00;63.00;64.00;65.00;66.00;67.00;68.00;69.00;70.00;71.00;72.00;73.00;74.00;75.00;76.00;77.00;78.00;79.00;80.00;81.00;82.00;83.00;84.00;85.00;86.00;87.00;88.00;89.00;90.00;91.00;92.00;93.00;94.00;95.00;96.00;97.00;98.00;99.00;100.00;101.00;102.00;103.00;104.00;105.00;106.00;107.00;108.00;109.00;110.00;111.00;112.00;113.00;114.00;115.00;116.00;117.00;118.00;119.00;120.00;121.00;122.00;123.00;124.00;125.00;126.00;127.00;128.00;129.00;130.00;131.00;132.00;133.00;134.00;135.00;136.00;137.00;138.00;139.00;140.00;141.00;142.00;143.00;144.00;145.00;146.00;147.00;148.00;149.00;150.00;151.00;152.00;153.00;154.00;155.00;156.00;157.00;158.00;159.00;160.00;161.00;162.00;163.00;164.00;165.00;166.00;167.00;168.00;169.00;170.00;171.00;172.00;173.00;174.00;175.00;176.00;177.00;178.00;179.00;180.00;181.00;182.00;183.00;184.00;185.00;186.00;187.00;188.00;189.00;190.00;
		SCAN_CURVETYPE=PDD
		SCAN_OFFAXIS_INPLANE=0.00
		SCAN_OFFAXIS_CROSSPLANE=0.00
		SCAN_ANGLE=0.00
		SCAN_DIAGONAL=NOT_DIAGONAL
		SCAN_DIRECTION=NEGATIVE
		MEAS_MEDIUM=WATER
		MEAS_PRESET=REFERENCE_DOSEMETER
		MEAS_TIME=0.100
		MEAS_UNIT=A.U.
		SCAN_SPEEDS=50.00; 1.00;150.00; 16.00;999.00; 50.00;
		DELAY_TIMES=50.00; 0.800;150.00; 0.400;999.90; 0.000;
		PRESSURE=1013.25
		TEMPERATURE=20.00
		NORM_TEMPERATURE=20.00
		CORRECTION_FACTOR=1.0000
		EXPECTED_MAX_DOSE_RATE=8.00
		BEGIN_DATA
			0		0.351
			0.371		0.35
			0.742		0.35
			1.112		0.35
			1.483		0.35
			1.854		0.35
			2.225		0.35
			2.595		0.35
			2.966		0.35
			3.337		0.35
			3.708		0.35
			4.079		0.351
			4.449		0.351
			4.82		0.351
			5.191		0.351
			5.562		0.351
			5.933		0.352
			6.303		0.352
			6.674		0.352
			7.045		0.352
			7.416		0.353
			7.786		0.353
			8.157		0.353
			8.528		0.354
			8.899		0.354
			9.27		0.355
			9.64		0.355
			10.011		0.355
			10.382		0.356
			10.753		0.356
			11.123		0.357
			11.494		0.357
			11.865		0.358
			12.236		0.358
			12.607		0.359
			12.977		0.359
			13.348		0.36
			13.719		0.361
			14.09		0.361
			14.46		0.362
			14.831		0.362
			15.202		0.363
			15.573		0.363
			15.944		0.364
			16.314		0.364
			16.685		0.365
			17.056		0.365
			17.427		0.366
			17.798		0.366
			18.168		0.367
			18.539		0.367
			18.91		0.368
			19.281		0.368
			19.651		0.369
			20.022		0.369
			20.393		0.37
			20.764		0.37
			21.135		0.371
			21.505		0.371
			21.876		0.372
			22.247		0.372
			22.618		0.372
			22.989		0.373
			23.359		0.373
			23.73		0.374
			24.101		0.374
			24.472		0.374
			24.842		0.375
			25.213		0.375
			25.584		0.375
			25.955		0.376
			26.326		0.376
			26.696		0.376
			27.067		0.377
			27.438		0.377
			27.809		0.377
			28.179		0.377
			28.55		0.378
			28.921		0.378
			29.292		0.378
			29.663		0.379
			30.033		0.379
			30.404		0.379
			30.775		0.38
			31.146		0.38
			31.516		0.38
			31.887		0.38
			32.258		0.381
			32.629		0.381
			33		0.381
			33.37		0.382
			33.741		0.382
			34.112		0.382
			34.483		0.383
			34.854		0.383
			35.224		0.383
			35.595		0.384
			35.966		0.384
			36.337		0.384
			36.707		0.385
			37.078		0.385
			37.449		0.385
			37.82		0.386
			38.19		0.386
			38.561		0.386
			38.932		0.387
			39.303		0.387
			39.674		0.387
			40.044		0.388
			40.415		0.388
			40.786		0.389
			41.157		0.389
			41.528		0.389
			41.898		0.39
			42.269		0.39
			42.64		0.391
			43.011		0.391
			43.381		0.392
			43.752		0.392
			44.123		0.392
			44.494		0.393
			44.865		0.393
			45.235		0.394
			45.606		0.394
			45.977		0.395
			46.348		0.395
			46.718		0.396
			47.089		0.396
			47.46		0.397
			47.831		0.397
			48.202		0.398
			48.572		0.398
			48.943		0.399
			49.314		0.399
			49.685		0.4
			50.056		0.4
			50.426		0.401
			50.797		0.401
			51.168		0.402
			51.539		0.402
			51.909		0.403
			52.28		0.403
			52.651		0.404
			53.022		0.404
			53.393		0.405
			53.763		0.406
			54.134		0.406
			54.505		0.407
			54.876		0.407
			55.246		0.408
			55.617		0.409
			55.988		0.409
			56.359		0.41
			56.73		0.41
			57.1		0.411
			57.471		0.412
			57.842		0.412
			58.213		0.413
			58.583		0.414
			58.954		0.414
			59.325		0.415
			59.696		0.416
			60.067		0.416
			60.437		0.417
			60.808		0.418
			61.179		0.418
			61.55		0.419
			61.921		0.42
			62.291		0.42
			62.662		0.421
			63.033		0.422
			63.404		0.422
			63.774		0.423
			64.145		0.424
			64.516		0.425
			64.887		0.425
			65.258		0.426
			65.628		0.427
			65.999		0.428
			66.37		0.428
			66.741		0.429
			67.112		0.43
			67.482		0.431
			67.853		0.431
			68.224		0.432
			68.595		0.433
			68.965		0.434
			69.336		0.435
			69.707		0.435
			70.078		0.436
			70.449		0.437
			70.819		0.438
			71.19		0.439
			71.561		0.439
			71.932		0.44
			72.302		0.441
			72.673		0.442
			73.044		0.443
			73.415		0.444
			73.785		0.444
			74.156		0.445
			74.527		0.446
			74.898		0.447
			75.269		0.448
			75.639		0.449
			76.01		0.45
			76.381		0.451
			76.752		0.451
			77.123		0.452
			77.493		0.453
			77.864		0.454
			78.235		0.455
			78.606		0.456
			78.977		0.457
			79.347		0.458
			79.718		0.459
			80.089		0.46
			80.46		0.461
			80.83		0.462
			81.201		0.463
			81.572		0.464
			81.943		0.465
			82.313		0.465
			82.684		0.466
			83.055		0.467
			83.426		0.468
			83.797		0.469
			84.167		0.47
			84.538		0.471
			84.909		0.472
			85.28		0.473
			85.65		0.474
			86.021		0.475
			86.392		0.476
			86.763		0.477
			87.134		0.478
			87.504		0.48
			87.875		0.481
			88.246		0.482
			88.617		0.483
			88.988		0.484
			89.358		0.485
			89.729		0.486
			90.1		0.487
			90.471		0.488
			90.841		0.489
			91.212		0.49
			91.583		0.491
			91.954		0.492
			92.325		0.493
			92.695		0.495
			93.066		0.496
			93.437		0.497
			93.808		0.498
			94.178		0.499
			94.549		0.5
			94.92		0.501
			95.291		0.502
			95.662		0.504
			96.032		0.505
			96.403		0.506
			96.774		0.507
			97.145		0.508
			97.516		0.509
			97.886		0.511
			98.257		0.512
			98.628		0.513
			98.999		0.514
			99.369		0.515
			99.74		0.517
			100.111		0.518
			100.482		0.519
			100.853		0.52
			101.223		0.521
			101.594		0.523
			101.965		0.524
			102.336		0.525
			102.706		0.527
			103.077		0.528
			103.448		0.529
			103.819		0.53
			104.19		0.532
			104.56		0.533
			104.931		0.534
			105.302		0.536
			105.673		0.537
			106.044		0.538
			106.414		0.54
			106.785		0.541
			107.156		0.543
			107.527		0.544
			107.897		0.546
			108.268		0.547
			108.639		0.548
			109.01		0.55
			109.381		0.551
			109.751		0.553
			110.122		0.554
			110.493		0.556
			110.864		0.558
			111.234		0.559
			111.605		0.561
			111.976		0.562
			112.347		0.564
			112.718		0.566
			113.088		0.568
			113.459		0.569
			113.83		0.571
			114.201		0.573
			114.572		0.575
			114.942		0.576
			115.313		0.578
			115.684		0.58
			116.055		0.582
			116.425		0.584
			116.796		0.586
			117.167		0.588
			117.538		0.59
			117.909		0.593
			118.279		0.595
			118.65		0.597
			119.021		0.599
			119.392		0.602
			119.762		0.604
			120.133		0.607
			120.504		0.609
			120.875		0.612
			121.246		0.615
			121.616		0.617
			121.987		0.62
			122.358		0.623
			122.729		0.626
			123.099		0.629
			123.47		0.632
			123.841		0.636
			124.212		0.639
			124.583		0.643
			124.953		0.646
			125.324		0.65
			125.695		0.654
			126.066		0.658
			126.437		0.662
			126.807		0.666
			127.178		0.671
			127.549		0.675
			127.92		0.68
			128.29		0.685
			128.661		0.69
			129.032		0.695
			129.403		0.701
			129.774		0.706
			130.144		0.712
			130.515		0.719
			130.886		0.725
			131.257		0.732
			131.627		0.739
			131.998		0.746
			132.369		0.754
			132.74		0.762
			133.111		0.77
			133.481		0.778
			133.852		0.787
			134.223		0.797
			134.594		0.807
			134.964		0.817
			135.335		0.828
			135.706		0.839
			136.077		0.851
			136.448		0.863
			136.818		0.876
			137.189		0.889
			137.56		0.904
			137.931		0.919
			138.302		0.934
			138.672		0.951
			139.043		0.968
			139.414		0.987
			139.785		1.007
			140.155		1.028
			140.526		1.05
			140.897		1.074
			141.268		1.1
			141.639		1.127
			142.009		1.156
			142.38		1.186
			142.751		1.217
			143.122		1.249
			143.492		1.281
			143.863		1.312
			144.234		1.341
			144.605		1.367
			144.976		1.388
			145.346		1.402
			145.717		1.408
			146.088		1.405
			146.459		1.392
			146.829		1.367
			147.2		1.33
			147.571		1.282
			147.942		1.222
			148.313		1.152
			148.683		1.074
			149.054		0.989
			149.425		0.899
			149.796		0.808
			150.167		0.716
			150.537		0.627
			150.908		0.541
			151.279		0.461
			151.65		0.388
			152.02		0.323
			152.391		0.265
			152.762		0.215
			153.133		0.172
			153.504		0.137
			153.874		0.107
			154.245		0.084
			154.616		0.065
			154.987		0.05
			155.357		0.038
			155.728		0.029
			156.099		0.022
			156.47		0.017
			156.841		0.013
			157.211		0.01
			157.582		0.007
			157.953		0.006
			158.324		0.004
			158.695		0.003
			159.065		0.003
			159.436		0.002
			159.807		0.002
			160.178		0.001
			160.548		0.001
			160.919		0.001
			161.29		0.001
			161.661		0
			162.032		0
			162.402		0
			162.773		0
			163.144		0
			163.515		0
			163.885		0
			164.256		0
			164.627		0
			164.998		0
			165.369		0
			165.739		0
			166.11		0
			166.481		0
			166.852		0
			167.222		0
			167.593		0
			167.964		0
			168.335		0
			168.706		0
			169.076		0
			169.447		0
			169.818		0
			170.189		0
			170.56		0
			170.93		0
			171.301		0
			171.672		0
			172.043		0
			172.413		0
			172.784		0
			173.155		0
			173.526		0
			173.897		0
			174.267		0
			174.638		0
			175.009		0
			175.38		0
			175.75		0
			176.121		0
			176.492		0
			176.863		0
			177.234		0
			177.604		0
			177.975		0
			178.346		0
			178.717		0
			179.087		0
			179.458		0
			179.829		0
			180.2		0
			180.571		0
			180.941		0
			181.312		0
			181.683		0
			182.054		0
			182.425		0
			182.795		0
			183.166		0
			183.537		0
			183.908		0
			184.278		0
			184.649		0
			185.02		0
		END_DATA
	END_SCAN  1
END_SCAN_DATA
