BEGIN_SCAN_DATA
	FORMAT=CC-Export V1.9                  
	FILE_CREATION_DATE=15-Aug-2018 12:21:57
	LAST_MODIFIED=15-Aug-2018 12:21:57
	BEGIN_SCAN  1
		TASK_NAME=tba PDD Profiles
		PROGRAM=tbaScan
		MEAS_DATE=15-Aug-2018 12:17:38
		LINAC=VARIAN PT
		MODALITY=P
		ISOCENTER=2500.00
		INPLANE_AXIS=Inplane
		CROSSPLANE_AXIS=Crossplane
		DEPTH_AXIS=Depth
		INPLANE_AXIS_DIR=GUN_TARGET
		CROSSPLANE_AXIS_DIR=LEFT_RIGHT
		DEPTH_AXIS_DIR=UP_DOWN
		ENERGY=150.00
		NOMINAL_DMAX=175.00
		SSD=2500.00
		SCD=1000.00
		BLOCK=0
		WEDGE_ANGLE=0.00
		FIELD_INPLANE=100.00
		FIELD_CROSSPLANE=100.00
		FIELD_TYPE=RECTANGULAR
		GANTRY=270.00
		GANTRY_UPRIGHT_POSITION=0
		GANTRY_ROTATION=CW
		COLL_ANGLE=0.00
		COLL_OFFSET_INPLANE=0.00
		COLL_OFFSET_CROSSPLANE=0.00
		SCAN_DEVICE=MP3
		SCAN_DEVICE_SETUP=BARA_LEFT_RIGHT
		ELECTROMETER=TANDEM_XDR
		RANGE_FIELD=HIGH
		RANGE_REFERENCE=AUTO
		DETECTOR=PLANE_PARALLEL_CHAMBER
		DETECTOR_RADIUS=0.00
		DETECTOR_NAME=PTW 34070 Bragg-Peak
		DETECTOR_SN=0000
		DETECTOR_CALIBRATION=1100000000.00
		DETECTOR_IS_CALIBRATED=0
		DETECTOR_REFERENCE=PLANE_PARALLEL_CHAMBER
		DETECTOR_REFERENCE_RADIUS=0.00
		DETECTOR_REFERENCE_NAME=PTW 34070 Bragg-Peak
		DETECTOR_REFERENCE_SN=0000
		DETECTOR_REFERENCE_IS_CALIBRATED=0
		DETECTOR_REFERENCE_CALIBRATION=1100000000.00
		DETECTOR_HV=400.0
		DETECTOR_REFERENCE_HV=400.0
		FILTER=FF
		REF_FIELD_DEPTH=0.00
		REF_FIELD_DEFINED=ISOCENTER
		REF_FIELD_INPLANE=40.00
		REF_FIELD_CROSSPLANE=40.00
		REF_SCAN_POSITIONS=0.00;1.00;2.00;3.00;4.00;5.00;6.00;7.00;8.00;9.00;10.00;11.00;12.00;13.00;14.00;15.00;16.00;17.00;18.00;19.00;20.00;21.00;22.00;23.00;24.00;25.00;26.00;27.00;28.00;29.00;30.00;31.00;32.00;33.00;34.00;35.00;36.00;37.00;38.00;39.00;40.00;41.00;42.00;43.00;44.00;45.00;46.00;47.00;48.00;49.00;50.00;51.00;52.00;53.00;54.00;55.00;56.00;57.00;58.00;59.00;60.00;61.00;62.00;63.00;64.00;65.00;66.00;67.00;68.00;69.00;70.00;71.00;72.00;73.00;74.00;75.00;76.00;77.00;78.00;79.00;80.00;81.00;82.00;83.00;84.00;85.00;86.00;87.00;88.00;89.00;90.00;91.00;92.00;93.00;94.00;95.00;96.00;97.00;98.00;99.00;100.00;101.00;102.00;103.00;104.00;105.00;106.00;107.00;108.00;109.00;110.00;111.00;112.00;113.00;114.00;115.00;116.00;117.00;118.00;119.00;120.00;121.00;122.00;123.00;124.00;125.00;126.00;127.00;128.00;129.00;130.00;131.00;132.00;133.00;134.00;135.00;136.00;137.00;138.00;139.00;140.00;141.00;142.00;143.00;144.00;145.00;146.00;147.00;148.00;149.00;150.00;151.00;152.00;153.00;154.00;155.00;156.00;157.00;158.00;159.00;160.00;161.00;162.00;163.00;164.00;165.00;166.00;167.00;168.00;169.00;170.00;171.00;172.00;173.00;174.00;175.00;176.00;177.00;178.00;179.00;180.00;181.00;182.00;183.00;184.00;185.00;186.00;187.00;188.00;189.00;190.00;
		SCAN_CURVETYPE=PDD
		SCAN_OFFAXIS_INPLANE=0.00
		SCAN_OFFAXIS_CROSSPLANE=0.00
		SCAN_ANGLE=0.00
		SCAN_DIAGONAL=NOT_DIAGONAL
		SCAN_DIRECTION=NEGATIVE
		MEAS_MEDIUM=WATER
		MEAS_PRESET=REFERENCE_DOSEMETER
		MEAS_TIME=0.100
		MEAS_UNIT=A.U.
		SCAN_SPEEDS=50.00; 1.00;150.00; 16.00;999.00; 50.00;
		DELAY_TIMES=50.00; 0.800;150.00; 0.400;999.90; 0.000;
		PRESSURE=1013.25
		TEMPERATURE=20.00
		NORM_TEMPERATURE=20.00
		CORRECTION_FACTOR=1.0000
		EXPECTED_MAX_DOSE_RATE=8.00
		BEGIN_DATA
			0		0.349
			0.393		0.348
			0.786		0.348
			1.178		0.348
			1.571		0.348
			1.964		0.348
			2.357		0.348
			2.75		0.348
			3.143		0.348
			3.535		0.349
			3.928		0.349
			4.321		0.349
			4.714		0.349
			5.107		0.349
			5.5		0.349
			5.892		0.35
			6.285		0.35
			6.678		0.35
			7.071		0.351
			7.464		0.351
			7.857		0.351
			8.249		0.352
			8.642		0.352
			9.035		0.353
			9.428		0.353
			9.821		0.354
			10.214		0.354
			10.606		0.355
			10.999		0.355
			11.392		0.356
			11.785		0.357
			12.178		0.357
			12.57		0.358
			12.963		0.358
			13.356		0.359
			13.749		0.36
			14.142		0.36
			14.535		0.361
			14.927		0.361
			15.32		0.362
			15.713		0.363
			16.106		0.363
			16.499		0.364
			16.892		0.365
			17.284		0.365
			17.677		0.366
			18.07		0.366
			18.463		0.367
			18.856		0.368
			19.249		0.368
			19.641		0.369
			20.034		0.369
			20.427		0.37
			20.82		0.37
			21.213		0.371
			21.605		0.371
			21.998		0.372
			22.391		0.372
			22.784		0.373
			23.177		0.373
			23.569		0.374
			23.962		0.374
			24.355		0.375
			24.748		0.375
			25.141		0.375
			25.534		0.376
			25.927		0.376
			26.319		0.376
			26.712		0.377
			27.105		0.377
			27.498		0.377
			27.891		0.378
			28.283		0.378
			28.676		0.378
			29.069		0.379
			29.462		0.379
			29.855		0.379
			30.248		0.38
			30.64		0.38
			31.033		0.38
			31.426		0.381
			31.819		0.381
			32.212		0.381
			32.604		0.381
			32.997		0.382
			33.39		0.382
			33.783		0.382
			34.176		0.383
			34.569		0.383
			34.961		0.383
			35.354		0.383
			35.747		0.384
			36.14		0.384
			36.533		0.384
			36.926		0.385
			37.318		0.385
			37.711		0.385
			38.104		0.386
			38.497		0.386
			38.89		0.386
			39.283		0.387
			39.675		0.387
			40.068		0.387
			40.461		0.388
			40.854		0.388
			41.247		0.388
			41.639		0.389
			42.032		0.389
			42.425		0.39
			42.818		0.39
			43.211		0.39
			43.604		0.391
			43.996		0.391
			44.389		0.391
			44.782		0.392
			45.175		0.392
			45.568		0.393
			45.961		0.393
			46.353		0.394
			46.746		0.394
			47.139		0.394
			47.532		0.395
			47.925		0.395
			48.318		0.396
			48.71		0.396
			49.103		0.397
			49.496		0.397
			49.889		0.398
			50.282		0.398
			50.674		0.399
			51.067		0.399
			51.46		0.4
			51.853		0.4
			52.246		0.401
			52.639		0.401
			53.032		0.402
			53.424		0.402
			53.817		0.403
			54.21		0.403
			54.603		0.404
			54.996		0.404
			55.388		0.405
			55.781		0.405
			56.174		0.406
			56.567		0.406
			56.96		0.407
			57.353		0.407
			57.745		0.408
			58.138		0.409
			58.531		0.409
			58.924		0.41
			59.317		0.41
			59.709		0.411
			60.102		0.412
			60.495		0.412
			60.888		0.413
			61.281		0.413
			61.674		0.414
			62.067		0.415
			62.459		0.415
			62.852		0.416
			63.245		0.417
			63.638		0.417
			64.031		0.418
			64.423		0.419
			64.816		0.419
			65.209		0.42
			65.602		0.421
			65.995		0.421
			66.387		0.422
			66.78		0.423
			67.173		0.423
			67.566		0.424
			67.959		0.425
			68.352		0.425
			68.744		0.426
			69.137		0.427
			69.53		0.428
			69.923		0.428
			70.316		0.429
			70.709		0.43
			71.101		0.431
			71.494		0.431
			71.887		0.432
			72.28		0.433
			72.673		0.434
			73.066		0.434
			73.458		0.435
			73.851		0.436
			74.244		0.437
			74.637		0.437
			75.03		0.438
			75.423		0.439
			75.815		0.44
			76.208		0.441
			76.601		0.441
			76.994		0.442
			77.387		0.443
			77.78		0.444
			78.172		0.445
			78.565		0.446
			78.958		0.446
			79.351		0.447
			79.744		0.448
			80.136		0.449
			80.529		0.45
			80.922		0.451
			81.315		0.452
			81.708		0.452
			82.101		0.453
			82.493		0.454
			82.886		0.455
			83.279		0.456
			83.672		0.457
			84.065		0.458
			84.457		0.459
			84.85		0.46
			85.243		0.461
			85.636		0.461
			86.029		0.462
			86.422		0.463
			86.814		0.464
			87.207		0.465
			87.6		0.466
			87.993		0.467
			88.386		0.468
			88.779		0.469
			89.171		0.47
			89.564		0.471
			89.957		0.472
			90.35		0.473
			90.743		0.474
			91.136		0.475
			91.528		0.476
			91.921		0.477
			92.314		0.478
			92.707		0.479
			93.1		0.48
			93.493		0.481
			93.885		0.482
			94.278		0.483
			94.671		0.484
			95.064		0.485
			95.457		0.486
			95.85		0.487
			96.242		0.488
			96.635		0.489
			97.028		0.49
			97.421		0.491
			97.814		0.492
			98.206		0.493
			98.599		0.494
			98.992		0.496
			99.385		0.497
			99.778		0.498
			100.171		0.499
			100.563		0.5
			100.956		0.501
			101.349		0.502
			101.742		0.503
			102.135		0.504
			102.527		0.506
			102.92		0.507
			103.313		0.508
			103.706		0.509
			104.099		0.51
			104.492		0.511
			104.884		0.512
			105.277		0.514
			105.67		0.515
			106.063		0.516
			106.456		0.517
			106.849		0.518
			107.241		0.52
			107.634		0.521
			108.027		0.522
			108.42		0.523
			108.813		0.524
			109.206		0.526
			109.598		0.527
			109.991		0.528
			110.384		0.53
			110.777		0.531
			111.17		0.532
			111.562		0.533
			111.955		0.535
			112.348		0.536
			112.741		0.537
			113.134		0.539
			113.527		0.54
			113.919		0.542
			114.312		0.543
			114.705		0.544
			115.098		0.546
			115.491		0.547
			115.884		0.549
			116.276		0.55
			116.669		0.552
			117.062		0.553
			117.455		0.555
			117.848		0.556
			118.241		0.558
			118.633		0.559
			119.026		0.561
			119.419		0.563
			119.812		0.564
			120.205		0.566
			120.597		0.568
			120.99		0.569
			121.383		0.571
			121.776		0.573
			122.169		0.575
			122.562		0.577
			122.954		0.579
			123.347		0.58
			123.74		0.582
			124.133		0.584
			124.526		0.587
			124.919		0.589
			125.311		0.591
			125.704		0.593
			126.097		0.595
			126.49		0.597
			126.883		0.6
			127.276		0.602
			127.668		0.605
			128.061		0.607
			128.454		0.61
			128.847		0.613
			129.24		0.615
			129.632		0.618
			130.025		0.621
			130.418		0.624
			130.811		0.627
			131.204		0.63
			131.597		0.634
			131.989		0.637
			132.382		0.64
			132.775		0.644
			133.168		0.648
			133.561		0.652
			133.954		0.656
			134.346		0.66
			134.739		0.664
			135.132		0.668
			135.525		0.673
			135.918		0.678
			136.311		0.683
			136.703		0.688
			137.096		0.693
			137.489		0.699
			137.882		0.704
			138.275		0.71
			138.667		0.716
			139.06		0.723
			139.453		0.73
			139.846		0.737
			140.239		0.744
			140.632		0.752
			141.024		0.76
			141.417		0.768
			141.81		0.776
			142.203		0.786
			142.596		0.795
			142.989		0.805
			143.381		0.815
			143.774		0.826
			144.167		0.837
			144.56		0.849
			144.953		0.861
			145.345		0.874
			145.738		0.888
			146.131		0.902
			146.524		0.918
			146.917		0.933
			147.31		0.95
			147.702		0.968
			148.095		0.987
			148.488		1.007
			148.881		1.029
			149.274		1.052
			149.667		1.076
			150.059		1.102
			150.452		1.13
			150.845		1.16
			151.238		1.191
			151.631		1.223
			152.024		1.255
			152.416		1.288
			152.809		1.318
			153.202		1.347
			153.595		1.371
			153.988		1.389
			154.38		1.401
			154.773		1.403
			155.166		1.395
			155.559		1.377
			155.952		1.346
			156.345		1.302
			156.737		1.247
			157.13		1.182
			157.523		1.106
			157.916		1.023
			158.309		0.934
			158.702		0.842
			159.094		0.749
			159.487		0.657
			159.88		0.569
			160.273		0.486
			160.666		0.41
			161.059		0.341
			161.451		0.28
			161.844		0.227
			162.237		0.182
			162.63		0.144
			163.023		0.113
			163.415		0.088
			163.808		0.067
			164.201		0.052
			164.594		0.039
			164.987		0.03
			165.38		0.022
			165.772		0.017
			166.165		0.013
			166.558		0.01
			166.951		0.007
			167.344		0.005
			167.737		0.004
			168.129		0.003
			168.522		0.002
			168.915		0.002
			169.308		0.001
			169.701		0.001
			170.094		0.001
			170.486		0.001
			170.879		0
			171.272		0
			171.665		0
			172.058		0
			172.45		0
			172.843		0
			173.236		0
			173.629		0
			174.022		0
			174.415		0
			174.807		0
			175.2		0
			175.593		0
			175.986		0
			176.379		0
			176.772		0
			177.164		0
			177.557		0
			177.95		0
			178.343		0
			178.736		0
			179.128		0
			179.521		0
			179.914		0
			180.307		0
			180.7		0
			181.093		0
			181.485		0
			181.878		0
			182.271		0
			182.664		0
			183.057		0
			183.45		0
			183.842		0
			184.235		0
			184.628		0
			185.021		0
			185.414		0
			185.807		0
			186.199		0
			186.592		0
			186.985		0
			187.378		0
			187.771		0
			188.163		0
			188.556		0
			188.949		0
			189.342		0
			189.735		0
			190.128		0
			190.52		0
			190.913		0
			191.306		0
			191.699		0
			192.092		0
			192.485		0
			192.877		0
			193.27		0
			193.663		0
			194.056		0
			194.449		0
			194.842		0
			195.234		0
			195.627		0
			196.02		0
		END_DATA
	END_SCAN  1
END_SCAN_DATA
