BEGIN_SCAN_DATA
	FORMAT=CC-Export V1.9                  
	FILE_CREATION_DATE=15-Aug-2018 12:21:57
	LAST_MODIFIED=15-Aug-2018 12:21:57
	BEGIN_SCAN  1
		TASK_NAME=tba PDD Profiles
		PROGRAM=tbaScan
		MEAS_DATE=15-Aug-2018 12:17:38
		LINAC=VARIAN PT
		MODALITY=P
		ISOCENTER=2500.00
		INPLANE_AXIS=Inplane
		CROSSPLANE_AXIS=Crossplane
		DEPTH_AXIS=Depth
		INPLANE_AXIS_DIR=GUN_TARGET
		CROSSPLANE_AXIS_DIR=LEFT_RIGHT
		DEPTH_AXIS_DIR=UP_DOWN
		ENERGY=155.00
		NOMINAL_DMAX=175.00
		SSD=2500.00
		SCD=1000.00
		BLOCK=0
		WEDGE_ANGLE=0.00
		FIELD_INPLANE=100.00
		FIELD_CROSSPLANE=100.00
		FIELD_TYPE=RECTANGULAR
		GANTRY=270.00
		GANTRY_UPRIGHT_POSITION=0
		GANTRY_ROTATION=CW
		COLL_ANGLE=0.00
		COLL_OFFSET_INPLANE=0.00
		COLL_OFFSET_CROSSPLANE=0.00
		SCAN_DEVICE=MP3
		SCAN_DEVICE_SETUP=BARA_LEFT_RIGHT
		ELECTROMETER=TANDEM_XDR
		RANGE_FIELD=HIGH
		RANGE_REFERENCE=AUTO
		DETECTOR=PLANE_PARALLEL_CHAMBER
		DETECTOR_RADIUS=0.00
		DETECTOR_NAME=PTW 34070 Bragg-Peak
		DETECTOR_SN=0000
		DETECTOR_CALIBRATION=1100000000.00
		DETECTOR_IS_CALIBRATED=0
		DETECTOR_REFERENCE=PLANE_PARALLEL_CHAMBER
		DETECTOR_REFERENCE_RADIUS=0.00
		DETECTOR_REFERENCE_NAME=PTW 34070 Bragg-Peak
		DETECTOR_REFERENCE_SN=0000
		DETECTOR_REFERENCE_IS_CALIBRATED=0
		DETECTOR_REFERENCE_CALIBRATION=1100000000.00
		DETECTOR_HV=400.0
		DETECTOR_REFERENCE_HV=400.0
		FILTER=FF
		REF_FIELD_DEPTH=0.00
		REF_FIELD_DEFINED=ISOCENTER
		REF_FIELD_INPLANE=40.00
		REF_FIELD_CROSSPLANE=40.00
		REF_SCAN_POSITIONS=0.00;1.00;2.00;3.00;4.00;5.00;6.00;7.00;8.00;9.00;10.00;11.00;12.00;13.00;14.00;15.00;16.00;17.00;18.00;19.00;20.00;21.00;22.00;23.00;24.00;25.00;26.00;27.00;28.00;29.00;30.00;31.00;32.00;33.00;34.00;35.00;36.00;37.00;38.00;39.00;40.00;41.00;42.00;43.00;44.00;45.00;46.00;47.00;48.00;49.00;50.00;51.00;52.00;53.00;54.00;55.00;56.00;57.00;58.00;59.00;60.00;61.00;62.00;63.00;64.00;65.00;66.00;67.00;68.00;69.00;70.00;71.00;72.00;73.00;74.00;75.00;76.00;77.00;78.00;79.00;80.00;81.00;82.00;83.00;84.00;85.00;86.00;87.00;88.00;89.00;90.00;91.00;92.00;93.00;94.00;95.00;96.00;97.00;98.00;99.00;100.00;101.00;102.00;103.00;104.00;105.00;106.00;107.00;108.00;109.00;110.00;111.00;112.00;113.00;114.00;115.00;116.00;117.00;118.00;119.00;120.00;121.00;122.00;123.00;124.00;125.00;126.00;127.00;128.00;129.00;130.00;131.00;132.00;133.00;134.00;135.00;136.00;137.00;138.00;139.00;140.00;141.00;142.00;143.00;144.00;145.00;146.00;147.00;148.00;149.00;150.00;151.00;152.00;153.00;154.00;155.00;156.00;157.00;158.00;159.00;160.00;161.00;162.00;163.00;164.00;165.00;166.00;167.00;168.00;169.00;170.00;171.00;172.00;173.00;174.00;175.00;176.00;177.00;178.00;179.00;180.00;181.00;182.00;183.00;184.00;185.00;186.00;187.00;188.00;189.00;190.00;
		SCAN_CURVETYPE=PDD
		SCAN_OFFAXIS_INPLANE=0.00
		SCAN_OFFAXIS_CROSSPLANE=0.00
		SCAN_ANGLE=0.00
		SCAN_DIAGONAL=NOT_DIAGONAL
		SCAN_DIRECTION=NEGATIVE
		MEAS_MEDIUM=WATER
		MEAS_PRESET=REFERENCE_DOSEMETER
		MEAS_TIME=0.100
		MEAS_UNIT=A.U.
		SCAN_SPEEDS=50.00; 1.00;150.00; 16.00;999.00; 50.00;
		DELAY_TIMES=50.00; 0.800;150.00; 0.400;999.90; 0.000;
		PRESSURE=1013.25
		TEMPERATURE=20.00
		NORM_TEMPERATURE=20.00
		CORRECTION_FACTOR=1.0000
		EXPECTED_MAX_DOSE_RATE=8.00
		BEGIN_DATA
			0		0.346
			0.414		0.346
			0.828		0.345
			1.243		0.345
			1.657		0.345
			2.071		0.345
			2.485		0.345
			2.899		0.346
			3.314		0.346
			3.728		0.346
			4.142		0.346
			4.556		0.346
			4.97		0.346
			5.385		0.347
			5.799		0.347
			6.213		0.347
			6.627		0.348
			7.042		0.348
			7.456		0.349
			7.87		0.349
			8.284		0.349
			8.698		0.35
			9.113		0.35
			9.527		0.351
			9.941		0.352
			10.355		0.352
			10.769		0.353
			11.184		0.353
			11.598		0.354
			12.012		0.355
			12.426		0.355
			12.84		0.356
			13.255		0.357
			13.669		0.357
			14.083		0.358
			14.497		0.359
			14.911		0.359
			15.326		0.36
			15.74		0.361
			16.154		0.362
			16.568		0.362
			16.983		0.363
			17.397		0.364
			17.811		0.364
			18.225		0.365
			18.639		0.366
			19.054		0.366
			19.468		0.367
			19.882		0.368
			20.296		0.368
			20.71		0.369
			21.125		0.37
			21.539		0.37
			21.953		0.371
			22.367		0.371
			22.781		0.372
			23.196		0.372
			23.61		0.373
			24.024		0.373
			24.438		0.374
			24.853		0.374
			25.267		0.375
			25.681		0.375
			26.095		0.376
			26.509		0.376
			26.924		0.376
			27.338		0.377
			27.752		0.377
			28.166		0.378
			28.58		0.378
			28.995		0.378
			29.409		0.379
			29.823		0.379
			30.237		0.379
			30.651		0.38
			31.066		0.38
			31.48		0.38
			31.894		0.38
			32.308		0.381
			32.722		0.381
			33.137		0.381
			33.551		0.382
			33.965		0.382
			34.379		0.382
			34.793		0.382
			35.208		0.383
			35.622		0.383
			36.036		0.383
			36.45		0.384
			36.864		0.384
			37.279		0.384
			37.693		0.384
			38.107		0.385
			38.521		0.385
			38.936		0.385
			39.35		0.386
			39.764		0.386
			40.178		0.386
			40.592		0.387
			41.007		0.387
			41.421		0.387
			41.835		0.388
			42.249		0.388
			42.664		0.388
			43.078		0.389
			43.492		0.389
			43.906		0.389
			44.32		0.39
			44.735		0.39
			45.149		0.39
			45.563		0.391
			45.977		0.391
			46.391		0.392
			46.806		0.392
			47.22		0.392
			47.634		0.393
			48.048		0.393
			48.462		0.394
			48.877		0.394
			49.291		0.394
			49.705		0.395
			50.119		0.395
			50.533		0.396
			50.948		0.396
			51.362		0.396
			51.776		0.397
			52.19		0.397
			52.604		0.398
			53.019		0.398
			53.433		0.399
			53.847		0.399
			54.261		0.4
			54.675		0.4
			55.09		0.401
			55.504		0.401
			55.918		0.402
			56.332		0.402
			56.747		0.403
			57.161		0.403
			57.575		0.404
			57.989		0.404
			58.403		0.405
			58.818		0.405
			59.232		0.406
			59.646		0.406
			60.06		0.407
			60.474		0.407
			60.889		0.408
			61.303		0.409
			61.717		0.409
			62.131		0.41
			62.546		0.41
			62.96		0.411
			63.374		0.411
			63.788		0.412
			64.202		0.413
			64.617		0.413
			65.031		0.414
			65.445		0.414
			65.859		0.415
			66.273		0.416
			66.688		0.416
			67.102		0.417
			67.516		0.417
			67.93		0.418
			68.344		0.419
			68.759		0.419
			69.173		0.42
			69.587		0.421
			70.001		0.421
			70.415		0.422
			70.83		0.423
			71.244		0.423
			71.658		0.424
			72.072		0.425
			72.487		0.425
			72.901		0.426
			73.315		0.427
			73.729		0.428
			74.143		0.428
			74.558		0.429
			74.972		0.43
			75.386		0.43
			75.8		0.431
			76.214		0.432
			76.629		0.433
			77.043		0.433
			77.457		0.434
			77.871		0.435
			78.285		0.436
			78.7		0.436
			79.114		0.437
			79.528		0.438
			79.942		0.439
			80.356		0.439
			80.771		0.44
			81.185		0.441
			81.599		0.442
			82.013		0.443
			82.427		0.443
			82.842		0.444
			83.256		0.445
			83.67		0.446
			84.084		0.447
			84.498		0.447
			84.913		0.448
			85.327		0.449
			85.741		0.45
			86.155		0.451
			86.57		0.452
			86.984		0.453
			87.398		0.453
			87.812		0.454
			88.226		0.455
			88.641		0.456
			89.055		0.457
			89.469		0.458
			89.883		0.459
			90.297		0.459
			90.712		0.46
			91.126		0.461
			91.54		0.462
			91.954		0.463
			92.368		0.464
			92.783		0.465
			93.197		0.466
			93.611		0.467
			94.025		0.468
			94.439		0.469
			94.854		0.47
			95.268		0.47
			95.682		0.471
			96.096		0.472
			96.511		0.473
			96.925		0.474
			97.339		0.475
			97.753		0.476
			98.167		0.477
			98.582		0.478
			98.996		0.479
			99.41		0.48
			99.824		0.481
			100.238		0.482
			100.653		0.483
			101.067		0.484
			101.481		0.485
			101.895		0.486
			102.309		0.487
			102.724		0.488
			103.138		0.489
			103.552		0.49
			103.966		0.491
			104.381		0.492
			104.795		0.493
			105.209		0.494
			105.623		0.495
			106.037		0.496
			106.452		0.498
			106.866		0.499
			107.28		0.5
			107.694		0.501
			108.108		0.502
			108.523		0.503
			108.937		0.504
			109.351		0.505
			109.765		0.506
			110.179		0.507
			110.594		0.509
			111.008		0.51
			111.422		0.511
			111.836		0.512
			112.25		0.513
			112.665		0.514
			113.079		0.515
			113.493		0.517
			113.907		0.518
			114.322		0.519
			114.736		0.52
			115.15		0.521
			115.564		0.523
			115.978		0.524
			116.393		0.525
			116.807		0.526
			117.221		0.527
			117.635		0.529
			118.049		0.53
			118.464		0.531
			118.878		0.533
			119.292		0.534
			119.706		0.535
			120.12		0.536
			120.535		0.538
			120.949		0.539
			121.363		0.54
			121.777		0.542
			122.191		0.543
			122.606		0.545
			123.02		0.546
			123.434		0.548
			123.848		0.549
			124.263		0.55
			124.677		0.552
			125.091		0.553
			125.505		0.555
			125.919		0.557
			126.334		0.558
			126.748		0.56
			127.162		0.561
			127.576		0.563
			127.99		0.565
			128.405		0.566
			128.819		0.568
			129.233		0.57
			129.647		0.572
			130.061		0.574
			130.476		0.575
			130.89		0.577
			131.304		0.579
			131.718		0.581
			132.132		0.583
			132.547		0.585
			132.961		0.587
			133.375		0.59
			133.789		0.592
			134.204		0.594
			134.618		0.596
			135.032		0.599
			135.446		0.601
			135.86		0.604
			136.275		0.606
			136.689		0.609
			137.103		0.612
			137.517		0.614
			137.931		0.617
			138.346		0.62
			138.76		0.623
			139.174		0.626
			139.588		0.63
			140.002		0.633
			140.417		0.636
			140.831		0.64
			141.245		0.644
			141.659		0.648
			142.073		0.651
			142.488		0.656
			142.902		0.66
			143.316		0.664
			143.73		0.669
			144.145		0.673
			144.559		0.678
			144.973		0.683
			145.387		0.689
			145.801		0.694
			146.216		0.7
			146.63		0.706
			147.044		0.712
			147.458		0.718
			147.872		0.725
			148.287		0.732
			148.701		0.739
			149.115		0.747
			149.529		0.755
			149.943		0.763
			150.358		0.771
			150.772		0.78
			151.186		0.79
			151.6		0.8
			152.014		0.81
			152.429		0.821
			152.843		0.832
			153.257		0.844
			153.671		0.856
			154.086		0.869
			154.5		0.882
			154.914		0.897
			155.328		0.912
			155.742		0.928
			156.157		0.944
			156.571		0.962
			156.985		0.981
			157.399		1.001
			157.813		1.023
			158.228		1.046
			158.642		1.071
			159.056		1.097
			159.47		1.125
			159.884		1.155
			160.299		1.187
			160.713		1.219
			161.127		1.252
			161.541		1.284
			161.955		1.315
			162.37		1.343
			162.784		1.367
			163.198		1.385
			163.612		1.395
			164.027		1.395
			164.441		1.385
			164.855		1.363
			165.269		1.329
			165.683		1.282
			166.098		1.224
			166.512		1.154
			166.926		1.075
			167.34		0.989
			167.754		0.898
			168.169		0.804
			168.583		0.71
			168.997		0.619
			169.411		0.532
			169.825		0.45
			170.24		0.377
			170.654		0.31
			171.068		0.253
			171.482		0.203
			171.896		0.161
			172.311		0.126
			172.725		0.098
			173.139		0.075
			173.553		0.057
			173.968		0.043
			174.382		0.033
			174.796		0.024
			175.21		0.018
			175.624		0.014
			176.039		0.01
			176.453		0.008
			176.867		0.006
			177.281		0.004
			177.695		0.003
			178.11		0.002
			178.524		0.002
			178.938		0.001
			179.352		0.001
			179.766		0.001
			180.181		0.001
			180.595		0
			181.009		0
			181.423		0
			181.837		0
			182.252		0
			182.666		0
			183.08		0
			183.494		0
			183.909		0
			184.323		0
			184.737		0
			185.151		0
			185.565		0
			185.98		0
			186.394		0
			186.808		0
			187.222		0
			187.636		0
			188.051		0
			188.465		0
			188.879		0
			189.293		0
			189.707		0
			190.122		0
			190.536		0
			190.95		0
			191.364		0
			191.778		0
			192.193		0
			192.607		0
			193.021		0
			193.435		0
			193.85		0
			194.264		0
			194.678		0
			195.092		0
			195.506		0
			195.921		0
			196.335		0
			196.749		0
			197.163		0
			197.577		0
			197.992		0
			198.406		0
			198.82		0
			199.234		0
			199.648		0
			200.063		0
			200.477		0
			200.891		0
			201.305		0
			201.719		0
			202.134		0
			202.548		0
			202.962		0
			203.376		0
			203.791		0
			204.205		0
			204.619		0
			205.033		0
			205.447		0
			205.862		0
			206.276		0
			206.69		0
		END_DATA
	END_SCAN  1
END_SCAN_DATA
