BEGIN_SCAN_DATA
	FORMAT=CC-Export V1.9                  
	FILE_CREATION_DATE=15-Aug-2018 12:21:57
	LAST_MODIFIED=15-Aug-2018 12:21:57
	BEGIN_SCAN  1
		TASK_NAME=tba PDD Profiles
		PROGRAM=tbaScan
		MEAS_DATE=15-Aug-2018 12:17:38
		LINAC=VARIAN PT
		MODALITY=P
		ISOCENTER=2500.00
		INPLANE_AXIS=Inplane
		CROSSPLANE_AXIS=Crossplane
		DEPTH_AXIS=Depth
		INPLANE_AXIS_DIR=GUN_TARGET
		CROSSPLANE_AXIS_DIR=LEFT_RIGHT
		DEPTH_AXIS_DIR=UP_DOWN
		ENERGY=160.00
		NOMINAL_DMAX=175.00
		SSD=2500.00
		SCD=1000.00
		BLOCK=0
		WEDGE_ANGLE=0.00
		FIELD_INPLANE=100.00
		FIELD_CROSSPLANE=100.00
		FIELD_TYPE=RECTANGULAR
		GANTRY=270.00
		GANTRY_UPRIGHT_POSITION=0
		GANTRY_ROTATION=CW
		COLL_ANGLE=0.00
		COLL_OFFSET_INPLANE=0.00
		COLL_OFFSET_CROSSPLANE=0.00
		SCAN_DEVICE=MP3
		SCAN_DEVICE_SETUP=BARA_LEFT_RIGHT
		ELECTROMETER=TANDEM_XDR
		RANGE_FIELD=HIGH
		RANGE_REFERENCE=AUTO
		DETECTOR=PLANE_PARALLEL_CHAMBER
		DETECTOR_RADIUS=0.00
		DETECTOR_NAME=PTW 34070 Bragg-Peak
		DETECTOR_SN=0000
		DETECTOR_CALIBRATION=1100000000.00
		DETECTOR_IS_CALIBRATED=0
		DETECTOR_REFERENCE=PLANE_PARALLEL_CHAMBER
		DETECTOR_REFERENCE_RADIUS=0.00
		DETECTOR_REFERENCE_NAME=PTW 34070 Bragg-Peak
		DETECTOR_REFERENCE_SN=0000
		DETECTOR_REFERENCE_IS_CALIBRATED=0
		DETECTOR_REFERENCE_CALIBRATION=1100000000.00
		DETECTOR_HV=400.0
		DETECTOR_REFERENCE_HV=400.0
		FILTER=FF
		REF_FIELD_DEPTH=0.00
		REF_FIELD_DEFINED=ISOCENTER
		REF_FIELD_INPLANE=40.00
		REF_FIELD_CROSSPLANE=40.00
		REF_SCAN_POSITIONS=0.00;1.00;2.00;3.00;4.00;5.00;6.00;7.00;8.00;9.00;10.00;11.00;12.00;13.00;14.00;15.00;16.00;17.00;18.00;19.00;20.00;21.00;22.00;23.00;24.00;25.00;26.00;27.00;28.00;29.00;30.00;31.00;32.00;33.00;34.00;35.00;36.00;37.00;38.00;39.00;40.00;41.00;42.00;43.00;44.00;45.00;46.00;47.00;48.00;49.00;50.00;51.00;52.00;53.00;54.00;55.00;56.00;57.00;58.00;59.00;60.00;61.00;62.00;63.00;64.00;65.00;66.00;67.00;68.00;69.00;70.00;71.00;72.00;73.00;74.00;75.00;76.00;77.00;78.00;79.00;80.00;81.00;82.00;83.00;84.00;85.00;86.00;87.00;88.00;89.00;90.00;91.00;92.00;93.00;94.00;95.00;96.00;97.00;98.00;99.00;100.00;101.00;102.00;103.00;104.00;105.00;106.00;107.00;108.00;109.00;110.00;111.00;112.00;113.00;114.00;115.00;116.00;117.00;118.00;119.00;120.00;121.00;122.00;123.00;124.00;125.00;126.00;127.00;128.00;129.00;130.00;131.00;132.00;133.00;134.00;135.00;136.00;137.00;138.00;139.00;140.00;141.00;142.00;143.00;144.00;145.00;146.00;147.00;148.00;149.00;150.00;151.00;152.00;153.00;154.00;155.00;156.00;157.00;158.00;159.00;160.00;161.00;162.00;163.00;164.00;165.00;166.00;167.00;168.00;169.00;170.00;171.00;172.00;173.00;174.00;175.00;176.00;177.00;178.00;179.00;180.00;181.00;182.00;183.00;184.00;185.00;186.00;187.00;188.00;189.00;190.00;
		SCAN_CURVETYPE=PDD
		SCAN_OFFAXIS_INPLANE=0.00
		SCAN_OFFAXIS_CROSSPLANE=0.00
		SCAN_ANGLE=0.00
		SCAN_DIAGONAL=NOT_DIAGONAL
		SCAN_DIRECTION=NEGATIVE
		MEAS_MEDIUM=WATER
		MEAS_PRESET=REFERENCE_DOSEMETER
		MEAS_TIME=0.100
		MEAS_UNIT=A.U.
		SCAN_SPEEDS=50.00; 1.00;150.00; 16.00;999.00; 50.00;
		DELAY_TIMES=50.00; 0.800;150.00; 0.400;999.90; 0.000;
		PRESSURE=1013.25
		TEMPERATURE=20.00
		NORM_TEMPERATURE=20.00
		CORRECTION_FACTOR=1.0000
		EXPECTED_MAX_DOSE_RATE=8.00
		BEGIN_DATA
			0		0.344
			0.425		0.344
			0.85		0.344
			1.276		0.344
			1.701		0.344
			2.126		0.344
			2.551		0.344
			2.977		0.344
			3.402		0.344
			3.827		0.344
			4.252		0.344
			4.678		0.345
			5.103		0.345
			5.528		0.345
			5.953		0.345
			6.378		0.346
			6.804		0.346
			7.229		0.347
			7.654		0.347
			8.079		0.348
			8.505		0.348
			8.93		0.349
			9.355		0.349
			9.78		0.35
			10.205		0.35
			10.631		0.351
			11.056		0.352
			11.481		0.352
			11.906		0.353
			12.332		0.354
			12.757		0.354
			13.182		0.355
			13.607		0.356
			14.033		0.357
			14.458		0.357
			14.883		0.358
			15.308		0.359
			15.733		0.36
			16.159		0.36
			16.584		0.361
			17.009		0.362
			17.434		0.363
			17.86		0.363
			18.285		0.364
			18.71		0.365
			19.135		0.366
			19.561		0.366
			19.986		0.367
			20.411		0.368
			20.836		0.369
			21.261		0.369
			21.687		0.37
			22.112		0.371
			22.537		0.371
			22.962		0.372
			23.388		0.372
			23.813		0.373
			24.238		0.374
			24.663		0.374
			25.089		0.375
			25.514		0.375
			25.939		0.376
			26.364		0.376
			26.789		0.377
			27.215		0.377
			27.64		0.377
			28.065		0.378
			28.49		0.378
			28.916		0.379
			29.341		0.379
			29.766		0.379
			30.191		0.38
			30.617		0.38
			31.042		0.38
			31.467		0.381
			31.892		0.381
			32.318		0.381
			32.743		0.382
			33.168		0.382
			33.593		0.382
			34.018		0.382
			34.444		0.383
			34.869		0.383
			35.294		0.383
			35.719		0.384
			36.145		0.384
			36.57		0.384
			36.995		0.384
			37.42		0.385
			37.846		0.385
			38.271		0.385
			38.696		0.385
			39.121		0.386
			39.546		0.386
			39.972		0.386
			40.397		0.387
			40.822		0.387
			41.247		0.387
			41.673		0.387
			42.098		0.388
			42.523		0.388
			42.948		0.388
			43.374		0.389
			43.799		0.389
			44.224		0.389
			44.649		0.39
			45.074		0.39
			45.5		0.39
			45.925		0.391
			46.35		0.391
			46.775		0.391
			47.201		0.392
			47.626		0.392
			48.051		0.392
			48.476		0.393
			48.902		0.393
			49.327		0.393
			49.752		0.394
			50.177		0.394
			50.602		0.395
			51.028		0.395
			51.453		0.395
			51.878		0.396
			52.303		0.396
			52.729		0.396
			53.154		0.397
			53.579		0.397
			54.004		0.398
			54.43		0.398
			54.855		0.399
			55.28		0.399
			55.705		0.399
			56.13		0.4
			56.556		0.4
			56.981		0.401
			57.406		0.401
			57.831		0.402
			58.257		0.402
			58.682		0.403
			59.107		0.403
			59.532		0.404
			59.958		0.404
			60.383		0.404
			60.808		0.405
			61.233		0.405
			61.658		0.406
			62.084		0.406
			62.509		0.407
			62.934		0.407
			63.359		0.408
			63.785		0.408
			64.21		0.409
			64.635		0.41
			65.06		0.41
			65.485		0.411
			65.911		0.411
			66.336		0.412
			66.761		0.412
			67.186		0.413
			67.612		0.413
			68.037		0.414
			68.462		0.414
			68.887		0.415
			69.313		0.416
			69.738		0.416
			70.163		0.417
			70.588		0.417
			71.013		0.418
			71.439		0.419
			71.864		0.419
			72.289		0.42
			72.714		0.42
			73.14		0.421
			73.565		0.422
			73.99		0.422
			74.415		0.423
			74.841		0.424
			75.266		0.424
			75.691		0.425
			76.116		0.425
			76.541		0.426
			76.967		0.427
			77.392		0.427
			77.817		0.428
			78.242		0.429
			78.668		0.429
			79.093		0.43
			79.518		0.431
			79.943		0.431
			80.369		0.432
			80.794		0.433
			81.219		0.434
			81.644		0.434
			82.07		0.435
			82.495		0.436
			82.92		0.436
			83.345		0.437
			83.77		0.438
			84.196		0.439
			84.621		0.439
			85.046		0.44
			85.471		0.441
			85.897		0.442
			86.322		0.442
			86.747		0.443
			87.172		0.444
			87.598		0.445
			88.023		0.445
			88.448		0.446
			88.873		0.447
			89.298		0.448
			89.724		0.448
			90.149		0.449
			90.574		0.45
			90.999		0.451
			91.424		0.452
			91.85		0.452
			92.275		0.453
			92.7		0.454
			93.126		0.455
			93.551		0.456
			93.976		0.456
			94.401		0.457
			94.826		0.458
			95.252		0.459
			95.677		0.46
			96.102		0.461
			96.527		0.462
			96.952		0.462
			97.378		0.463
			97.803		0.464
			98.228		0.465
			98.654		0.466
			99.079		0.467
			99.504		0.468
			99.929		0.468
			100.354		0.469
			100.78		0.47
			101.205		0.471
			101.63		0.472
			102.055		0.473
			102.481		0.474
			102.906		0.475
			103.331		0.476
			103.756		0.477
			104.181		0.477
			104.607		0.478
			105.032		0.479
			105.457		0.48
			105.882		0.481
			106.308		0.482
			106.733		0.483
			107.158		0.484
			107.583		0.485
			108.009		0.486
			108.434		0.487
			108.859		0.488
			109.284		0.489
			109.709		0.49
			110.135		0.491
			110.56		0.492
			110.985		0.493
			111.41		0.494
			111.836		0.495
			112.261		0.496
			112.686		0.497
			113.111		0.498
			113.537		0.499
			113.962		0.5
			114.387		0.501
			114.812		0.502
			115.237		0.503
			115.663		0.504
			116.088		0.505
			116.513		0.506
			116.938		0.507
			117.364		0.508
			117.789		0.509
			118.214		0.51
			118.639		0.511
			119.065		0.512
			119.49		0.514
			119.915		0.515
			120.34		0.516
			120.765		0.517
			121.191		0.518
			121.616		0.519
			122.041		0.52
			122.466		0.521
			122.892		0.523
			123.317		0.524
			123.742		0.525
			124.167		0.526
			124.593		0.527
			125.018		0.529
			125.443		0.53
			125.868		0.531
			126.293		0.532
			126.719		0.533
			127.144		0.535
			127.569		0.536
			127.994		0.537
			128.42		0.539
			128.845		0.54
			129.27		0.541
			129.695		0.543
			130.121		0.544
			130.546		0.545
			130.971		0.547
			131.396		0.548
			131.821		0.549
			132.247		0.551
			132.672		0.552
			133.097		0.554
			133.522		0.555
			133.948		0.557
			134.373		0.558
			134.798		0.56
			135.223		0.562
			135.649		0.563
			136.074		0.565
			136.499		0.566
			136.924		0.568
			137.349		0.57
			137.775		0.572
			138.2		0.573
			138.625		0.575
			139.05		0.577
			139.476		0.579
			139.901		0.581
			140.326		0.583
			140.751		0.585
			141.177		0.587
			141.602		0.589
			142.027		0.591
			142.452		0.594
			142.877		0.596
			143.303		0.598
			143.728		0.601
			144.153		0.603
			144.578		0.606
			145.004		0.608
			145.429		0.611
			145.854		0.614
			146.279		0.616
			146.705		0.619
			147.13		0.622
			147.555		0.625
			147.98		0.629
			148.405		0.632
			148.831		0.635
			149.256		0.639
			149.681		0.642
			150.106		0.646
			150.532		0.65
			150.957		0.654
			151.382		0.658
			151.807		0.663
			152.233		0.667
			152.658		0.672
			153.083		0.676
			153.508		0.681
			153.933		0.686
			154.359		0.692
			154.784		0.697
			155.209		0.703
			155.634		0.709
			156.06		0.715
			156.485		0.722
			156.91		0.729
			157.335		0.736
			157.761		0.743
			158.186		0.751
			158.611		0.759
			159.036		0.767
			159.461		0.776
			159.887		0.785
			160.312		0.794
			160.737		0.804
			161.162		0.814
			161.588		0.825
			162.013		0.836
			162.438		0.848
			162.863		0.86
			163.288		0.873
			163.714		0.887
			164.139		0.901
			164.564		0.916
			164.989		0.932
			165.415		0.949
			165.84		0.967
			166.265		0.986
			166.69		1.006
			167.116		1.028
			167.541		1.051
			167.966		1.076
			168.391		1.103
			168.816		1.131
			169.242		1.161
			169.667		1.193
			170.092		1.225
			170.517		1.257
			170.943		1.288
			171.368		1.318
			171.793		1.344
			172.218		1.366
			172.644		1.381
			173.069		1.389
			173.494		1.387
			173.919		1.374
			174.344		1.35
			174.77		1.314
			175.195		1.266
			175.62		1.206
			176.045		1.136
			176.471		1.057
			176.896		0.972
			177.321		0.882
			177.746		0.79
			178.172		0.698
			178.597		0.609
			179.022		0.524
			179.447		0.445
			179.872		0.372
			180.298		0.308
			180.723		0.251
			181.148		0.202
			181.573		0.161
			181.999		0.127
			182.424		0.099
			182.849		0.076
			183.274		0.058
			183.7		0.044
			184.125		0.033
			184.55		0.025
			184.975		0.019
			185.4		0.014
			185.826		0.01
			186.251		0.008
			186.676		0.006
			187.101		0.004
			187.527		0.003
			187.952		0.002
			188.377		0.002
			188.802		0.001
			189.228		0.001
			189.653		0.001
			190.078		0
			190.503		0
			190.928		0
			191.354		0
			191.779		0
			192.204		0
			192.629		0
			193.055		0
			193.48		0
			193.905		0
			194.33		0
			194.756		0
			195.181		0
			195.606		0
			196.031		0
			196.456		0
			196.882		0
			197.307		0
			197.732		0
			198.157		0
			198.583		0
			199.008		0
			199.433		0
			199.858		0
			200.284		0
			200.709		0
			201.134		0
			201.559		0
			201.984		0
			202.41		0
			202.835		0
			203.26		0
			203.685		0
			204.111		0
			204.536		0
			204.961		0
			205.386		0
			205.812		0
			206.237		0
			206.662		0
			207.087		0
			207.512		0
			207.938		0
			208.363		0
			208.788		0
			209.213		0
			209.639		0
			210.064		0
			210.489		0
			210.914		0
			211.34		0
			211.765		0
			212.19		0
		END_DATA
	END_SCAN  1
END_SCAN_DATA
