BEGIN_SCAN_DATA
	FORMAT=CC-Export V1.9                  
	FILE_CREATION_DATE=15-Aug-2018 12:07:13
	LAST_MODIFIED=15-Aug-2018 12:07:13
	BEGIN_SCAN  1
		TASK_NAME=tba PDD Profiles
		PROGRAM=tbaScan
		MEAS_DATE=15-Aug-2018 12:03:40
		LINAC=VARIAN PT
		MODALITY=P
		ISOCENTER=2500.00
		INPLANE_AXIS=Inplane
		CROSSPLANE_AXIS=Crossplane
		DEPTH_AXIS=Depth
		INPLANE_AXIS_DIR=GUN_TARGET
		CROSSPLANE_AXIS_DIR=LEFT_RIGHT
		DEPTH_AXIS_DIR=UP_DOWN
		ENERGY=165.00
		NOMINAL_DMAX=240.00
		SSD=2500.00
		SCD=1000.00
		BLOCK=0
		WEDGE_ANGLE=0.00
		FIELD_INPLANE=100.00
		FIELD_CROSSPLANE=100.00
		FIELD_TYPE=RECTANGULAR
		GANTRY=270.00
		GANTRY_UPRIGHT_POSITION=0
		GANTRY_ROTATION=CW
		COLL_ANGLE=0.00
		COLL_OFFSET_INPLANE=0.00
		COLL_OFFSET_CROSSPLANE=0.00
		SCAN_DEVICE=MP3
		SCAN_DEVICE_SETUP=BARA_LEFT_RIGHT
		ELECTROMETER=TANDEM_XDR
		RANGE_FIELD=HIGH
		RANGE_REFERENCE=AUTO
		DETECTOR=PLANE_PARALLEL_CHAMBER
		DETECTOR_RADIUS=0.00
		DETECTOR_NAME=PTW 34070 Bragg-Peak
		DETECTOR_SN=0000
		DETECTOR_CALIBRATION=1100000000.00
		DETECTOR_IS_CALIBRATED=0
		DETECTOR_REFERENCE=PLANE_PARALLEL_CHAMBER
		DETECTOR_REFERENCE_RADIUS=0.00
		DETECTOR_REFERENCE_NAME=PTW 34070 Bragg-Peak
		DETECTOR_REFERENCE_SN=0000
		DETECTOR_REFERENCE_IS_CALIBRATED=0
		DETECTOR_REFERENCE_CALIBRATION=1100000000.00
		DETECTOR_HV=400.0
		DETECTOR_REFERENCE_HV=400.0
		FILTER=FF
		REF_FIELD_DEPTH=0.00
		REF_FIELD_DEFINED=ISOCENTER
		REF_FIELD_INPLANE=40.00
		REF_FIELD_CROSSPLANE=40.00
		REF_SCAN_POSITIONS=0.00;10.00;20.00;30.00;40.00;50.00;60.00;70.00;80.00;90.00;100.00;110.00;120.00;125.00;130.00;135.00;140.00;145.00;150.00;155.00;160.00;165.00;170.00;175.00;180.00;185.00;190.00;192.00;194.00;196.00;198.00;200.00;202.00;204.00;206.00;208.00;210.00;212.00;214.00;216.00;218.00;220.00;222.00;224.00;226.00;228.00;230.00;232.00;234.00;236.00;238.00;240.00;242.00;244.00;246.00;248.00;250.00;252.00;254.00;256.00;258.00;260.00;262.00;264.00;266.00;268.00;270.00;272.00;274.00;276.00;278.00;280.00;282.00;284.00;286.00;288.00;290.00;
		SCAN_CURVETYPE=PDD
		SCAN_OFFAXIS_INPLANE=0.00
		SCAN_OFFAXIS_CROSSPLANE=0.00
		SCAN_ANGLE=0.00
		SCAN_DIAGONAL=NOT_DIAGONAL
		SCAN_DIRECTION=NEGATIVE
		MEAS_MEDIUM=WATER
		MEAS_PRESET=REFERENCE_DOSEMETER
		MEAS_TIME=0.100
		MEAS_UNIT=A.U.
		SCAN_SPEEDS=50.00; 1.00;150.00; 16.00;999.00; 50.00;
		DELAY_TIMES=50.00; 0.800;150.00; 0.400;999.90; 0.000;
		PRESSURE=1013.25
		TEMPERATURE=20.00
		NORM_TEMPERATURE=20.00
		CORRECTION_FACTOR=1.0000
		EXPECTED_MAX_DOSE_RATE=8.00
		BEGIN_DATA
			0		0.341
			0.458		0.341
			0.917		0.341
			1.375		0.341
			1.833		0.341
			2.291		0.341
			2.75		0.341
			3.208		0.341
			3.666		0.341
			4.125		0.342
			4.583		0.342
			5.041		0.342
			5.5		0.342
			5.958		0.343
			6.416		0.343
			6.874		0.344
			7.333		0.344
			7.791		0.345
			8.249		0.345
			8.708		0.346
			9.166		0.346
			9.624		0.347
			10.083		0.348
			10.541		0.348
			10.999		0.349
			11.457		0.35
			11.916		0.351
			12.374		0.351
			12.832		0.352
			13.291		0.353
			13.749		0.354
			14.207		0.355
			14.665		0.355
			15.124		0.356
			15.582		0.357
			16.04		0.358
			16.499		0.359
			16.957		0.36
			17.415		0.361
			17.874		0.362
			18.332		0.362
			18.79		0.363
			19.249		0.364
			19.707		0.365
			20.165		0.366
			20.623		0.367
			21.082		0.367
			21.54		0.368
			21.998		0.369
			22.456		0.37
			22.915		0.37
			23.373		0.371
			23.831		0.372
			24.29		0.372
			24.748		0.373
			25.206		0.374
			25.665		0.374
			26.123		0.375
			26.581		0.375
			27.039		0.376
			27.498		0.376
			27.956		0.377
			28.414		0.377
			28.873		0.378
			29.331		0.378
			29.789		0.379
			30.248		0.379
			30.706		0.38
			31.164		0.38
			31.622		0.38
			32.081		0.381
			32.539		0.381
			32.997		0.381
			33.456		0.382
			33.914		0.382
			34.372		0.382
			34.831		0.383
			35.289		0.383
			35.747		0.383
			36.205		0.383
			36.664		0.384
			37.122		0.384
			37.58		0.384
			38.039		0.384
			38.497		0.385
			38.955		0.385
			39.414		0.385
			39.872		0.386
			40.33		0.386
			40.788		0.386
			41.247		0.386
			41.705		0.387
			42.163		0.387
			42.622		0.387
			43.08		0.388
			43.538		0.388
			43.996		0.388
			44.455		0.388
			44.913		0.389
			45.371		0.389
			45.83		0.389
			46.288		0.39
			46.746		0.39
			47.204		0.39
			47.663		0.391
			48.121		0.391
			48.579		0.391
			49.038		0.392
			49.496		0.392
			49.954		0.392
			50.413		0.393
			50.871		0.393
			51.329		0.393
			51.787		0.394
			52.246		0.394
			52.704		0.394
			53.162		0.395
			53.621		0.395
			54.079		0.396
			54.537		0.396
			54.996		0.396
			55.454		0.397
			55.912		0.397
			56.37		0.398
			56.829		0.398
			57.287		0.398
			57.745		0.399
			58.204		0.399
			58.662		0.4
			59.12		0.4
			59.579		0.401
			60.037		0.401
			60.495		0.401
			60.953		0.402
			61.412		0.402
			61.87		0.403
			62.328		0.403
			62.787		0.404
			63.245		0.404
			63.703		0.405
			64.161		0.405
			64.62		0.406
			65.078		0.406
			65.536		0.407
			65.995		0.407
			66.453		0.408
			66.911		0.408
			67.37		0.409
			67.828		0.409
			68.286		0.41
			68.744		0.41
			69.203		0.411
			69.661		0.411
			70.119		0.412
			70.578		0.412
			71.036		0.413
			71.494		0.414
			71.953		0.414
			72.411		0.415
			72.869		0.415
			73.327		0.416
			73.786		0.416
			74.244		0.417
			74.702		0.418
			75.161		0.418
			75.619		0.419
			76.077		0.419
			76.535		0.42
			76.994		0.421
			77.452		0.421
			77.91		0.422
			78.369		0.422
			78.827		0.423
			79.285		0.424
			79.744		0.424
			80.202		0.425
			80.66		0.426
			81.118		0.426
			81.577		0.427
			82.035		0.428
			82.493		0.428
			82.952		0.429
			83.41		0.43
			83.868		0.43
			84.327		0.431
			84.785		0.432
			85.243		0.432
			85.701		0.433
			86.16		0.434
			86.618		0.434
			87.076		0.435
			87.535		0.436
			87.993		0.436
			88.451		0.437
			88.91		0.438
			89.368		0.439
			89.826		0.439
			90.284		0.44
			90.743		0.441
			91.201		0.442
			91.659		0.442
			92.118		0.443
			92.576		0.444
			93.034		0.445
			93.493		0.445
			93.951		0.446
			94.409		0.447
			94.867		0.448
			95.326		0.448
			95.784		0.449
			96.242		0.45
			96.701		0.451
			97.159		0.452
			97.617		0.452
			98.076		0.453
			98.534		0.454
			98.992		0.455
			99.45		0.456
			99.909		0.456
			100.367		0.457
			100.825		0.458
			101.284		0.459
			101.742		0.46
			102.2		0.461
			102.658		0.461
			103.117		0.462
			103.575		0.463
			104.033		0.464
			104.492		0.465
			104.95		0.466
			105.408		0.467
			105.867		0.468
			106.325		0.468
			106.783		0.469
			107.241		0.47
			107.7		0.471
			108.158		0.472
			108.616		0.473
			109.075		0.474
			109.533		0.475
			109.991		0.476
			110.449		0.476
			110.908		0.477
			111.366		0.478
			111.824		0.479
			112.283		0.48
			112.741		0.481
			113.199		0.482
			113.658		0.483
			114.116		0.484
			114.574		0.485
			115.032		0.486
			115.491		0.487
			115.949		0.488
			116.407		0.489
			116.866		0.49
			117.324		0.491
			117.782		0.492
			118.241		0.493
			118.699		0.494
			119.157		0.495
			119.615		0.496
			120.074		0.497
			120.532		0.498
			120.99		0.499
			121.449		0.5
			121.907		0.501
			122.365		0.502
			122.823		0.503
			123.282		0.504
			123.74		0.505
			124.198		0.506
			124.657		0.507
			125.115		0.508
			125.573		0.509
			126.032		0.51
			126.49		0.511
			126.948		0.513
			127.406		0.514
			127.865		0.515
			128.323		0.516
			128.781		0.517
			129.24		0.518
			129.698		0.519
			130.156		0.52
			130.615		0.522
			131.073		0.523
			131.531		0.524
			131.989		0.525
			132.448		0.526
			132.906		0.528
			133.364		0.529
			133.823		0.53
			134.281		0.531
			134.739		0.533
			135.197		0.534
			135.656		0.535
			136.114		0.536
			136.572		0.538
			137.031		0.539
			137.489		0.54
			137.947		0.542
			138.406		0.543
			138.864		0.545
			139.322		0.546
			139.78		0.547
			140.239		0.549
			140.697		0.55
			141.155		0.552
			141.614		0.553
			142.072		0.555
			142.53		0.556
			142.989		0.558
			143.447		0.56
			143.905		0.561
			144.363		0.563
			144.822		0.565
			145.28		0.567
			145.738		0.568
			146.197		0.57
			146.655		0.572
			147.113		0.574
			147.572		0.576
			148.03		0.578
			148.488		0.58
			148.946		0.582
			149.405		0.584
			149.863		0.586
			150.321		0.588
			150.78		0.591
			151.238		0.593
			151.696		0.595
			152.154		0.598
			152.613		0.6
			153.071		0.603
			153.529		0.606
			153.988		0.608
			154.446		0.611
			154.904		0.614
			155.363		0.617
			155.821		0.62
			156.279		0.623
			156.737		0.627
			157.196		0.63
			157.654		0.634
			158.112		0.637
			158.571		0.641
			159.029		0.645
			159.487		0.649
			159.946		0.653
			160.404		0.658
			160.862		0.662
			161.32		0.667
			161.779		0.672
			162.237		0.677
			162.695		0.682
			163.154		0.688
			163.612		0.693
			164.07		0.699
			164.528		0.705
			164.987		0.712
			165.445		0.718
			165.903		0.725
			166.362		0.732
			166.82		0.74
			167.278		0.748
			167.737		0.756
			168.195		0.765
			168.653		0.774
			169.111		0.783
			169.57		0.793
			170.028		0.803
			170.486		0.814
			170.945		0.825
			171.403		0.837
			171.861		0.849
			172.32		0.862
			172.778		0.875
			173.236		0.89
			173.694		0.905
			174.153		0.921
			174.611		0.938
			175.069		0.956
			175.528		0.975
			175.986		0.996
			176.444		1.018
			176.902		1.042
			177.361		1.067
			177.819		1.095
			178.277		1.124
			178.736		1.155
			179.194		1.187
			179.652		1.221
			180.111		1.254
			180.569		1.286
			181.027		1.316
			181.485		1.342
			181.944		1.363
			182.402		1.376
			182.86		1.38
			183.319		1.374
			183.777		1.355
			184.235		1.324
			184.694		1.28
			185.152		1.223
			185.61		1.154
			186.068		1.076
			186.527		0.99
			186.985		0.898
			187.443		0.803
			187.902		0.708
			188.36		0.615
			188.818		0.527
			189.276		0.445
			189.735		0.37
			190.193		0.303
			190.651		0.245
			191.11		0.195
			191.568		0.154
			192.026		0.119
			192.485		0.092
			192.943		0.07
			193.401		0.052
			193.859		0.039
			194.318		0.029
			194.776		0.021
			195.234		0.016
			195.693		0.011
			196.151		0.008
			196.609		0.006
			197.068		0.004
			197.526		0.003
			197.984		0.002
			198.442		0.002
			198.901		0.001
			199.359		0.001
			199.817		0.001
			200.276		0
			200.734		0
			201.192		0
			201.651		0
			202.109		0
			202.567		0
			203.025		0
			203.484		0
			203.942		0
			204.4		0
			204.859		0
			205.317		0
			205.775		0
			206.233		0
			206.692		0
			207.15		0
			207.608		0
			208.067		0
			208.525		0
			208.983		0
			209.442		0
			209.9		0
			210.358		0
			210.816		0
			211.275		0
			211.733		0
			212.191		0
			212.65		0
			213.108		0
			213.566		0
			214.025		0
			214.483		0
			214.941		0
			215.399		0
			215.858		0
			216.316		0
			216.774		0
			217.233		0
			217.691		0
			218.149		0
			218.607		0
			219.066		0
			219.524		0
			219.982		0
			220.441		0
			220.899		0
			221.357		0
			221.816		0
			222.274		0
			222.732		0
			223.19		0
			223.649		0
			224.107		0
			224.565		0
			225.024		0
			225.482		0
			225.94		0
			226.399		0
			226.857		0
			227.315		0
			227.773		0
			228.232		0
			228.69		0
		END_DATA
	END_SCAN  1
END_SCAN_DATA
