BEGIN_SCAN_DATA
	FORMAT=CC-Export V1.9                  
	FILE_CREATION_DATE=15-Aug-2018 12:07:13
	LAST_MODIFIED=15-Aug-2018 12:07:13
	BEGIN_SCAN  1
		TASK_NAME=tba PDD Profiles
		PROGRAM=tbaScan
		MEAS_DATE=15-Aug-2018 12:03:40
		LINAC=VARIAN PT
		MODALITY=P
		ISOCENTER=2500.00
		INPLANE_AXIS=Inplane
		CROSSPLANE_AXIS=Crossplane
		DEPTH_AXIS=Depth
		INPLANE_AXIS_DIR=GUN_TARGET
		CROSSPLANE_AXIS_DIR=LEFT_RIGHT
		DEPTH_AXIS_DIR=UP_DOWN
		ENERGY=170.00
		NOMINAL_DMAX=240.00
		SSD=2500.00
		SCD=1000.00
		BLOCK=0
		WEDGE_ANGLE=0.00
		FIELD_INPLANE=100.00
		FIELD_CROSSPLANE=100.00
		FIELD_TYPE=RECTANGULAR
		GANTRY=270.00
		GANTRY_UPRIGHT_POSITION=0
		GANTRY_ROTATION=CW
		COLL_ANGLE=0.00
		COLL_OFFSET_INPLANE=0.00
		COLL_OFFSET_CROSSPLANE=0.00
		SCAN_DEVICE=MP3
		SCAN_DEVICE_SETUP=BARA_LEFT_RIGHT
		ELECTROMETER=TANDEM_XDR
		RANGE_FIELD=HIGH
		RANGE_REFERENCE=AUTO
		DETECTOR=PLANE_PARALLEL_CHAMBER
		DETECTOR_RADIUS=0.00
		DETECTOR_NAME=PTW 34070 Bragg-Peak
		DETECTOR_SN=0000
		DETECTOR_CALIBRATION=1100000000.00
		DETECTOR_IS_CALIBRATED=0
		DETECTOR_REFERENCE=PLANE_PARALLEL_CHAMBER
		DETECTOR_REFERENCE_RADIUS=0.00
		DETECTOR_REFERENCE_NAME=PTW 34070 Bragg-Peak
		DETECTOR_REFERENCE_SN=0000
		DETECTOR_REFERENCE_IS_CALIBRATED=0
		DETECTOR_REFERENCE_CALIBRATION=1100000000.00
		DETECTOR_HV=400.0
		DETECTOR_REFERENCE_HV=400.0
		FILTER=FF
		REF_FIELD_DEPTH=0.00
		REF_FIELD_DEFINED=ISOCENTER
		REF_FIELD_INPLANE=40.00
		REF_FIELD_CROSSPLANE=40.00
		REF_SCAN_POSITIONS=0.00;10.00;20.00;30.00;40.00;50.00;60.00;70.00;80.00;90.00;100.00;110.00;120.00;125.00;130.00;135.00;140.00;145.00;150.00;155.00;160.00;165.00;170.00;175.00;180.00;185.00;190.00;192.00;194.00;196.00;198.00;200.00;202.00;204.00;206.00;208.00;210.00;212.00;214.00;216.00;218.00;220.00;222.00;224.00;226.00;228.00;230.00;232.00;234.00;236.00;238.00;240.00;242.00;244.00;246.00;248.00;250.00;252.00;254.00;256.00;258.00;260.00;262.00;264.00;266.00;268.00;270.00;272.00;274.00;276.00;278.00;280.00;282.00;284.00;286.00;288.00;290.00;
		SCAN_CURVETYPE=PDD
		SCAN_OFFAXIS_INPLANE=0.00
		SCAN_OFFAXIS_CROSSPLANE=0.00
		SCAN_ANGLE=0.00
		SCAN_DIAGONAL=NOT_DIAGONAL
		SCAN_DIRECTION=NEGATIVE
		MEAS_MEDIUM=WATER
		MEAS_PRESET=REFERENCE_DOSEMETER
		MEAS_TIME=0.100
		MEAS_UNIT=A.U.
		SCAN_SPEEDS=50.00; 1.00;150.00; 16.00;999.00; 50.00;
		DELAY_TIMES=50.00; 0.800;150.00; 0.400;999.90; 0.000;
		PRESSURE=1013.25
		TEMPERATURE=20.00
		NORM_TEMPERATURE=20.00
		CORRECTION_FACTOR=1.0000
		EXPECTED_MAX_DOSE_RATE=8.00
		BEGIN_DATA
			0		0.339
			0.491		0.339
			0.983		0.339
			1.474		0.339
			1.965		0.339
			2.457		0.339
			2.948		0.34
			3.44		0.34
			3.931		0.34
			4.422		0.34
			4.914		0.341
			5.405		0.341
			5.896		0.341
			6.388		0.342
			6.879		0.342
			7.37		0.343
			7.862		0.343
			8.353		0.344
			8.845		0.344
			9.336		0.345
			9.827		0.346
			10.319		0.347
			10.81		0.347
			11.301		0.348
			11.793		0.349
			12.284		0.35
			12.775		0.351
			13.267		0.351
			13.758		0.352
			14.25		0.353
			14.741		0.354
			15.232		0.355
			15.724		0.356
			16.215		0.357
			16.706		0.358
			17.198		0.359
			17.689		0.36
			18.18		0.361
			18.672		0.362
			19.163		0.363
			19.654		0.364
			20.146		0.364
			20.637		0.365
			21.129		0.366
			21.62		0.367
			22.111		0.368
			22.603		0.369
			23.094		0.37
			23.585		0.37
			24.077		0.371
			24.568		0.372
			25.059		0.373
			25.551		0.373
			26.042		0.374
			26.534		0.375
			27.025		0.375
			27.516		0.376
			28.008		0.376
			28.499		0.377
			28.99		0.378
			29.482		0.378
			29.973		0.378
			30.465		0.379
			30.956		0.379
			31.447		0.38
			31.939		0.38
			32.43		0.381
			32.921		0.381
			33.413		0.381
			33.904		0.382
			34.395		0.382
			34.887		0.382
			35.378		0.383
			35.869		0.383
			36.361		0.383
			36.852		0.384
			37.344		0.384
			37.835		0.384
			38.326		0.384
			38.818		0.385
			39.309		0.385
			39.8		0.385
			40.292		0.385
			40.783		0.386
			41.275		0.386
			41.766		0.386
			42.257		0.387
			42.749		0.387
			43.24		0.387
			43.731		0.387
			44.223		0.388
			44.714		0.388
			45.205		0.388
			45.697		0.388
			46.188		0.389
			46.68		0.389
			47.171		0.389
			47.662		0.39
			48.153		0.39
			48.645		0.39
			49.136		0.391
			49.628		0.391
			50.119		0.391
			50.61		0.392
			51.102		0.392
			51.593		0.392
			52.084		0.393
			52.576		0.393
			53.067		0.393
			53.558		0.394
			54.05		0.394
			54.541		0.394
			55.033		0.395
			55.524		0.395
			56.015		0.395
			56.507		0.396
			56.998		0.396
			57.489		0.397
			57.981		0.397
			58.472		0.397
			58.964		0.398
			59.455		0.398
			59.946		0.399
			60.438		0.399
			60.929		0.399
			61.42		0.4
			61.912		0.4
			62.403		0.401
			62.894		0.401
			63.386		0.402
			63.877		0.402
			64.368		0.402
			64.86		0.403
			65.351		0.403
			65.843		0.404
			66.334		0.404
			66.825		0.405
			67.317		0.405
			67.808		0.406
			68.299		0.406
			68.791		0.407
			69.282		0.407
			69.773		0.408
			70.265		0.408
			70.756		0.409
			71.248		0.409
			71.739		0.41
			72.23		0.41
			72.722		0.411
			73.213		0.411
			73.704		0.412
			74.196		0.412
			74.687		0.413
			75.178		0.414
			75.67		0.414
			76.161		0.415
			76.653		0.415
			77.144		0.416
			77.635		0.416
			78.127		0.417
			78.618		0.417
			79.109		0.418
			79.601		0.419
			80.092		0.419
			80.584		0.42
			81.075		0.42
			81.566		0.421
			82.058		0.422
			82.549		0.422
			83.04		0.423
			83.532		0.424
			84.023		0.424
			84.514		0.425
			85.006		0.425
			85.497		0.426
			85.989		0.427
			86.48		0.427
			86.971		0.428
			87.463		0.429
			87.954		0.429
			88.445		0.43
			88.937		0.431
			89.428		0.431
			89.919		0.432
			90.411		0.433
			90.902		0.433
			91.394		0.434
			91.885		0.435
			92.376		0.435
			92.868		0.436
			93.359		0.437
			93.85		0.438
			94.342		0.438
			94.833		0.439
			95.324		0.44
			95.816		0.441
			96.307		0.441
			96.799		0.442
			97.29		0.443
			97.781		0.443
			98.272		0.444
			98.764		0.445
			99.255		0.446
			99.747		0.447
			100.238		0.447
			100.729		0.448
			101.221		0.449
			101.712		0.45
			102.203		0.45
			102.695		0.451
			103.186		0.452
			103.678		0.453
			104.169		0.454
			104.66		0.454
			105.152		0.455
			105.643		0.456
			106.134		0.457
			106.626		0.458
			107.117		0.458
			107.608		0.459
			108.1		0.46
			108.591		0.461
			109.083		0.462
			109.574		0.463
			110.065		0.463
			110.557		0.464
			111.048		0.465
			111.539		0.466
			112.031		0.467
			112.522		0.468
			113.013		0.469
			113.505		0.47
			113.996		0.47
			114.488		0.471
			114.979		0.472
			115.47		0.473
			115.962		0.474
			116.453		0.475
			116.944		0.476
			117.436		0.477
			117.927		0.478
			118.418		0.479
			118.91		0.479
			119.401		0.48
			119.893		0.481
			120.384		0.482
			120.875		0.483
			121.367		0.484
			121.858		0.485
			122.349		0.486
			122.841		0.487
			123.332		0.488
			123.823		0.489
			124.315		0.49
			124.806		0.491
			125.297		0.492
			125.789		0.493
			126.28		0.494
			126.772		0.495
			127.263		0.496
			127.754		0.497
			128.246		0.498
			128.737		0.499
			129.228		0.5
			129.72		0.501
			130.211		0.502
			130.702		0.503
			131.194		0.504
			131.685		0.505
			132.177		0.506
			132.668		0.507
			133.159		0.508
			133.651		0.51
			134.142		0.511
			134.633		0.512
			135.125		0.513
			135.616		0.514
			136.107		0.515
			136.599		0.516
			137.09		0.517
			137.582		0.519
			138.073		0.52
			138.564		0.521
			139.056		0.522
			139.547		0.523
			140.038		0.524
			140.53		0.526
			141.021		0.527
			141.512		0.528
			142.004		0.529
			142.495		0.531
			142.987		0.532
			143.478		0.533
			143.969		0.535
			144.461		0.536
			144.952		0.537
			145.443		0.539
			145.935		0.54
			146.426		0.541
			146.917		0.543
			147.409		0.544
			147.9		0.546
			148.392		0.547
			148.883		0.549
			149.374		0.55
			149.866		0.552
			150.357		0.553
			150.848		0.555
			151.34		0.557
			151.831		0.558
			152.322		0.56
			152.814		0.562
			153.305		0.563
			153.797		0.565
			154.288		0.567
			154.779		0.569
			155.271		0.571
			155.762		0.573
			156.253		0.575
			156.745		0.577
			157.236		0.579
			157.727		0.581
			158.219		0.583
			158.71		0.585
			159.202		0.588
			159.693		0.59
			160.184		0.593
			160.676		0.595
			161.167		0.598
			161.658		0.6
			162.15		0.603
			162.641		0.606
			163.132		0.609
			163.624		0.612
			164.115		0.615
			164.607		0.618
			165.098		0.621
			165.589		0.625
			166.081		0.628
			166.572		0.632
			167.063		0.636
			167.555		0.64
			168.046		0.644
			168.537		0.648
			169.029		0.652
			169.52		0.657
			170.012		0.662
			170.503		0.666
			170.994		0.672
			171.486		0.677
			171.977		0.682
			172.468		0.688
			172.96		0.694
			173.451		0.7
			173.942		0.707
			174.434		0.713
			174.925		0.72
			175.416		0.728
			175.908		0.736
			176.399		0.744
			176.891		0.752
			177.382		0.761
			177.873		0.77
			178.365		0.779
			178.856		0.789
			179.347		0.8
			179.839		0.811
			180.33		0.822
			180.821		0.834
			181.313		0.847
			181.804		0.86
			182.296		0.874
			182.787		0.889
			183.278		0.905
			183.77		0.921
			184.261		0.939
			184.752		0.958
			185.244		0.978
			185.735		1
			186.226		1.023
			186.718		1.049
			187.209		1.076
			187.701		1.106
			188.192		1.137
			188.683		1.17
			189.175		1.204
			189.666		1.238
			190.157		1.272
			190.649		1.303
			191.14		1.331
			191.631		1.353
			192.123		1.367
			192.614		1.372
			193.106		1.365
			193.597		1.345
			194.088		1.312
			194.58		1.266
			195.071		1.205
			195.562		1.133
			196.054		1.05
			196.545		0.96
			197.036		0.864
			197.528		0.766
			198.019		0.669
			198.511		0.575
			199.002		0.487
			199.493		0.406
			199.985		0.333
			200.476		0.269
			200.967		0.214
			201.459		0.168
			201.95		0.13
			202.441		0.099
			202.933		0.075
			203.424		0.056
			203.916		0.041
			204.407		0.03
			204.898		0.022
			205.39		0.016
			205.881		0.011
			206.372		0.008
			206.864		0.006
			207.355		0.004
			207.846		0.003
			208.338		0.002
			208.829		0.001
			209.321		0.001
			209.812		0.001
			210.303		0.001
			210.795		0
			211.286		0
			211.777		0
			212.269		0
			212.76		0
			213.251		0
			213.743		0
			214.234		0
			214.726		0
			215.217		0
			215.708		0
			216.2		0
			216.691		0
			217.182		0
			217.674		0
			218.165		0
			218.656		0
			219.148		0
			219.639		0
			220.131		0
			220.622		0
			221.113		0
			221.605		0
			222.096		0
			222.587		0
			223.079		0
			223.57		0
			224.061		0
			224.553		0
			225.044		0
			225.535		0
			226.027		0
			226.518		0
			227.01		0
			227.501		0
			227.992		0
			228.484		0
			228.975		0
			229.466		0
			229.958		0
			230.449		0
			230.94		0
			231.432		0
			231.923		0
			232.415		0
			232.906		0
			233.397		0
			233.889		0
			234.38		0
			234.871		0
			235.363		0
			235.854		0
			236.345		0
			236.837		0
			237.328		0
			237.82		0
			238.311		0
			238.802		0
			239.294		0
			239.785		0
			240.276		0
			240.768		0
			241.259		0
			241.75		0
			242.242		0
			242.733		0
			243.225		0
			243.716		0
			244.207		0
			244.699		0
			245.19		0
		END_DATA
	END_SCAN  1
END_SCAN_DATA
