BEGIN_SCAN_DATA
	FORMAT=CC-Export V1.9                  
	FILE_CREATION_DATE=15-Aug-2018 12:07:13
	LAST_MODIFIED=15-Aug-2018 12:07:13
	BEGIN_SCAN  1
		TASK_NAME=tba PDD Profiles
		PROGRAM=tbaScan
		MEAS_DATE=15-Aug-2018 12:03:40
		LINAC=VARIAN PT
		MODALITY=P
		ISOCENTER=2500.00
		INPLANE_AXIS=Inplane
		CROSSPLANE_AXIS=Crossplane
		DEPTH_AXIS=Depth
		INPLANE_AXIS_DIR=GUN_TARGET
		CROSSPLANE_AXIS_DIR=LEFT_RIGHT
		DEPTH_AXIS_DIR=UP_DOWN
		ENERGY=175.00
		NOMINAL_DMAX=240.00
		SSD=2500.00
		SCD=1000.00
		BLOCK=0
		WEDGE_ANGLE=0.00
		FIELD_INPLANE=100.00
		FIELD_CROSSPLANE=100.00
		FIELD_TYPE=RECTANGULAR
		GANTRY=270.00
		GANTRY_UPRIGHT_POSITION=0
		GANTRY_ROTATION=CW
		COLL_ANGLE=0.00
		COLL_OFFSET_INPLANE=0.00
		COLL_OFFSET_CROSSPLANE=0.00
		SCAN_DEVICE=MP3
		SCAN_DEVICE_SETUP=BARA_LEFT_RIGHT
		ELECTROMETER=TANDEM_XDR
		RANGE_FIELD=HIGH
		RANGE_REFERENCE=AUTO
		DETECTOR=PLANE_PARALLEL_CHAMBER
		DETECTOR_RADIUS=0.00
		DETECTOR_NAME=PTW 34070 Bragg-Peak
		DETECTOR_SN=0000
		DETECTOR_CALIBRATION=1100000000.00
		DETECTOR_IS_CALIBRATED=0
		DETECTOR_REFERENCE=PLANE_PARALLEL_CHAMBER
		DETECTOR_REFERENCE_RADIUS=0.00
		DETECTOR_REFERENCE_NAME=PTW 34070 Bragg-Peak
		DETECTOR_REFERENCE_SN=0000
		DETECTOR_REFERENCE_IS_CALIBRATED=0
		DETECTOR_REFERENCE_CALIBRATION=1100000000.00
		DETECTOR_HV=400.0
		DETECTOR_REFERENCE_HV=400.0
		FILTER=FF
		REF_FIELD_DEPTH=0.00
		REF_FIELD_DEFINED=ISOCENTER
		REF_FIELD_INPLANE=40.00
		REF_FIELD_CROSSPLANE=40.00
		REF_SCAN_POSITIONS=0.00;10.00;20.00;30.00;40.00;50.00;60.00;70.00;80.00;90.00;100.00;110.00;120.00;125.00;130.00;135.00;140.00;145.00;150.00;155.00;160.00;165.00;170.00;175.00;180.00;185.00;190.00;192.00;194.00;196.00;198.00;200.00;202.00;204.00;206.00;208.00;210.00;212.00;214.00;216.00;218.00;220.00;222.00;224.00;226.00;228.00;230.00;232.00;234.00;236.00;238.00;240.00;242.00;244.00;246.00;248.00;250.00;252.00;254.00;256.00;258.00;260.00;262.00;264.00;266.00;268.00;270.00;272.00;274.00;276.00;278.00;280.00;282.00;284.00;286.00;288.00;290.00;
		SCAN_CURVETYPE=PDD
		SCAN_OFFAXIS_INPLANE=0.00
		SCAN_OFFAXIS_CROSSPLANE=0.00
		SCAN_ANGLE=0.00
		SCAN_DIAGONAL=NOT_DIAGONAL
		SCAN_DIRECTION=NEGATIVE
		MEAS_MEDIUM=WATER
		MEAS_PRESET=REFERENCE_DOSEMETER
		MEAS_TIME=0.100
		MEAS_UNIT=A.U.
		SCAN_SPEEDS=50.00; 1.00;150.00; 16.00;999.00; 50.00;
		DELAY_TIMES=50.00; 0.800;150.00; 0.400;999.90; 0.000;
		PRESSURE=1013.25
		TEMPERATURE=20.00
		NORM_TEMPERATURE=20.00
		CORRECTION_FACTOR=1.0000
		EXPECTED_MAX_DOSE_RATE=8.00
		BEGIN_DATA
			0		0.34
			0.502		0.34
			1.005		0.34
			1.507		0.34
			2.01		0.34
			2.512		0.34
			3.014		0.34
			3.517		0.341
			4.019		0.341
			4.521		0.341
			5.024		0.341
			5.526		0.342
			6.029		0.342
			6.531		0.343
			7.033		0.343
			7.536		0.343
			8.038		0.344
			8.541		0.345
			9.043		0.345
			9.545		0.346
			10.048		0.346
			10.55		0.347
			11.052		0.348
			11.555		0.349
			12.057		0.349
			12.56		0.35
			13.062		0.351
			13.564		0.352
			14.067		0.353
			14.569		0.354
			15.071		0.355
			15.574		0.355
			16.076		0.356
			16.579		0.357
			17.081		0.358
			17.583		0.359
			18.086		0.36
			18.588		0.361
			19.091		0.362
			19.593		0.363
			20.095		0.364
			20.598		0.365
			21.1		0.366
			21.603		0.367
			22.105		0.367
			22.607		0.368
			23.11		0.369
			23.612		0.37
			24.115		0.371
			24.617		0.371
			25.119		0.372
			25.622		0.373
			26.124		0.374
			26.626		0.374
			27.129		0.375
			27.631		0.375
			28.133		0.376
			28.636		0.377
			29.138		0.377
			29.641		0.378
			30.143		0.378
			30.646		0.379
			31.148		0.379
			31.65		0.38
			32.153		0.38
			32.655		0.38
			33.157		0.381
			33.66		0.381
			34.162		0.381
			34.665		0.382
			35.167		0.382
			35.669		0.382
			36.172		0.383
			36.674		0.383
			37.176		0.383
			37.679		0.384
			38.181		0.384
			38.684		0.384
			39.186		0.384
			39.688		0.385
			40.191		0.385
			40.693		0.385
			41.196		0.385
			41.698		0.386
			42.2		0.386
			42.703		0.386
			43.205		0.386
			43.708		0.387
			44.21		0.387
			44.712		0.387
			45.215		0.387
			45.717		0.388
			46.219		0.388
			46.722		0.388
			47.224		0.388
			47.727		0.389
			48.229		0.389
			48.731		0.389
			49.234		0.39
			49.736		0.39
			50.238		0.39
			50.741		0.39
			51.243		0.391
			51.746		0.391
			52.248		0.391
			52.75		0.392
			53.253		0.392
			53.755		0.392
			54.258		0.393
			54.76		0.393
			55.262		0.393
			55.765		0.394
			56.267		0.394
			56.77		0.394
			57.272		0.395
			57.774		0.395
			58.277		0.395
			58.779		0.396
			59.281		0.396
			59.784		0.396
			60.286		0.397
			60.789		0.397
			61.291		0.397
			61.793		0.398
			62.296		0.398
			62.798		0.399
			63.3		0.399
			63.803		0.399
			64.305		0.4
			64.808		0.4
			65.31		0.401
			65.812		0.401
			66.315		0.401
			66.817		0.402
			67.32		0.402
			67.822		0.403
			68.324		0.403
			68.827		0.403
			69.329		0.404
			69.831		0.404
			70.334		0.405
			70.836		0.405
			71.339		0.406
			71.841		0.406
			72.343		0.407
			72.846		0.407
			73.348		0.408
			73.851		0.408
			74.353		0.409
			74.855		0.409
			75.358		0.41
			75.86		0.41
			76.363		0.411
			76.865		0.411
			77.367		0.412
			77.87		0.412
			78.372		0.413
			78.874		0.413
			79.377		0.414
			79.879		0.414
			80.382		0.415
			80.884		0.415
			81.386		0.416
			81.889		0.416
			82.391		0.417
			82.894		0.417
			83.396		0.418
			83.898		0.418
			84.401		0.419
			84.903		0.42
			85.405		0.42
			85.908		0.421
			86.41		0.421
			86.913		0.422
			87.415		0.422
			87.917		0.423
			88.42		0.424
			88.922		0.424
			89.424		0.425
			89.927		0.425
			90.429		0.426
			90.932		0.427
			91.434		0.427
			91.936		0.428
			92.439		0.429
			92.941		0.429
			93.444		0.43
			93.946		0.43
			94.448		0.431
			94.951		0.432
			95.453		0.432
			95.955		0.433
			96.458		0.434
			96.96		0.434
			97.463		0.435
			97.965		0.436
			98.467		0.436
			98.97		0.437
			99.472		0.438
			99.975		0.438
			100.477		0.439
			100.979		0.44
			101.482		0.44
			101.984		0.441
			102.486		0.442
			102.989		0.443
			103.491		0.443
			103.994		0.444
			104.496		0.445
			104.998		0.445
			105.501		0.446
			106.003		0.447
			106.506		0.448
			107.008		0.448
			107.51		0.449
			108.013		0.45
			108.515		0.451
			109.017		0.451
			109.52		0.452
			110.022		0.453
			110.525		0.454
			111.027		0.454
			111.529		0.455
			112.032		0.456
			112.534		0.457
			113.037		0.458
			113.539		0.458
			114.041		0.459
			114.544		0.46
			115.046		0.461
			115.548		0.461
			116.051		0.462
			116.553		0.463
			117.056		0.464
			117.558		0.465
			118.06		0.466
			118.563		0.466
			119.065		0.467
			119.568		0.468
			120.07		0.469
			120.572		0.47
			121.075		0.471
			121.577		0.471
			122.079		0.472
			122.582		0.473
			123.084		0.474
			123.587		0.475
			124.089		0.476
			124.591		0.477
			125.094		0.477
			125.596		0.478
			126.099		0.479
			126.601		0.48
			127.103		0.481
			127.606		0.482
			128.108		0.483
			128.611		0.484
			129.113		0.484
			129.615		0.485
			130.118		0.486
			130.62		0.487
			131.122		0.488
			131.625		0.489
			132.127		0.49
			132.63		0.491
			133.132		0.492
			133.634		0.493
			134.137		0.494
			134.639		0.495
			135.142		0.496
			135.644		0.497
			136.146		0.498
			136.649		0.499
			137.151		0.5
			137.653		0.501
			138.156		0.502
			138.658		0.503
			139.161		0.504
			139.663		0.505
			140.165		0.506
			140.668		0.507
			141.17		0.508
			141.673		0.509
			142.175		0.51
			142.677		0.511
			143.18		0.512
			143.682		0.513
			144.184		0.514
			144.687		0.515
			145.189		0.516
			145.692		0.517
			146.194		0.519
			146.696		0.52
			147.199		0.521
			147.701		0.522
			148.204		0.523
			148.706		0.524
			149.208		0.525
			149.711		0.527
			150.213		0.528
			150.715		0.529
			151.218		0.53
			151.72		0.532
			152.223		0.533
			152.725		0.534
			153.227		0.535
			153.73		0.537
			154.232		0.538
			154.735		0.539
			155.237		0.541
			155.739		0.542
			156.242		0.544
			156.744		0.545
			157.246		0.546
			157.749		0.548
			158.251		0.549
			158.754		0.551
			159.256		0.553
			159.758		0.554
			160.261		0.556
			160.763		0.557
			161.266		0.559
			161.768		0.561
			162.27		0.562
			162.773		0.564
			163.275		0.566
			163.777		0.568
			164.28		0.57
			164.782		0.572
			165.285		0.574
			165.787		0.576
			166.289		0.578
			166.792		0.58
			167.294		0.582
			167.797		0.584
			168.299		0.587
			168.801		0.589
			169.304		0.591
			169.806		0.594
			170.308		0.596
			170.811		0.599
			171.313		0.602
			171.816		0.605
			172.318		0.608
			172.82		0.611
			173.323		0.614
			173.825		0.617
			174.328		0.62
			174.83		0.623
			175.332		0.627
			175.835		0.631
			176.337		0.634
			176.839		0.638
			177.342		0.642
			177.844		0.646
			178.347		0.651
			178.849		0.655
			179.351		0.66
			179.854		0.665
			180.356		0.67
			180.859		0.675
			181.361		0.681
			181.863		0.686
			182.366		0.692
			182.868		0.698
			183.37		0.705
			183.873		0.711
			184.375		0.718
			184.878		0.725
			185.38		0.733
			185.882		0.741
			186.385		0.749
			186.887		0.757
			187.39		0.766
			187.892		0.776
			188.394		0.785
			188.897		0.796
			189.399		0.806
			189.901		0.817
			190.404		0.829
			190.906		0.841
			191.409		0.854
			191.911		0.868
			192.413		0.882
			192.916		0.897
			193.418		0.913
			193.921		0.93
			194.423		0.949
			194.925		0.968
			195.428		0.989
			195.93		1.012
			196.432		1.036
			196.935		1.063
			197.437		1.091
			197.94		1.121
			198.442		1.154
			198.944		1.187
			199.447		1.221
			199.949		1.256
			200.452		1.288
			200.954		1.317
			201.456		1.342
			201.959		1.359
			202.461		1.368
			202.963		1.366
			203.466		1.352
			203.968		1.325
			204.471		1.283
			204.973		1.228
			205.475		1.161
			205.978		1.082
			206.48		0.994
			206.983		0.901
			207.485		0.803
			207.987		0.706
			208.49		0.611
			208.992		0.52
			209.494		0.436
			209.997		0.36
			210.499		0.292
			211.002		0.234
			211.504		0.184
			212.006		0.143
			212.509		0.11
			213.011		0.083
			213.514		0.062
			214.016		0.046
			214.518		0.034
			215.021		0.025
			215.523		0.018
			216.025		0.013
			216.528		0.009
			217.03		0.006
			217.533		0.005
			218.035		0.003
			218.537		0.002
			219.04		0.002
			219.542		0.001
			220.045		0.001
			220.547		0.001
			221.049		0
			221.552		0
			222.054		0
			222.556		0
			223.059		0
			223.561		0
			224.064		0
			224.566		0
			225.068		0
			225.571		0
			226.073		0
			226.576		0
			227.078		0
			227.58		0
			228.083		0
			228.585		0
			229.087		0
			229.59		0
			230.092		0
			230.595		0
			231.097		0
			231.599		0
			232.102		0
			232.604		0
			233.107		0
			233.609		0
			234.111		0
			234.614		0
			235.116		0
			235.618		0
			236.121		0
			236.623		0
			237.126		0
			237.628		0
			238.13		0
			238.633		0
			239.135		0
			239.638		0
			240.14		0
			240.642		0
			241.145		0
			241.647		0
			242.149		0
			242.652		0
			243.154		0
			243.657		0
			244.159		0
			244.661		0
			245.164		0
			245.666		0
			246.169		0
			246.671		0
			247.173		0
			247.676		0
			248.178		0
			248.68		0
			249.183		0
			249.685		0
			250.188		0
			250.69		0
		END_DATA
	END_SCAN  1
END_SCAN_DATA
