BEGIN_SCAN_DATA
	FORMAT=CC-Export V1.9                  
	FILE_CREATION_DATE=15-Aug-2018 12:07:13
	LAST_MODIFIED=15-Aug-2018 12:07:13
	BEGIN_SCAN  1
		TASK_NAME=tba PDD Profiles
		PROGRAM=tbaScan
		MEAS_DATE=15-Aug-2018 12:03:40
		LINAC=VARIAN PT
		MODALITY=P
		ISOCENTER=2500.00
		INPLANE_AXIS=Inplane
		CROSSPLANE_AXIS=Crossplane
		DEPTH_AXIS=Depth
		INPLANE_AXIS_DIR=GUN_TARGET
		CROSSPLANE_AXIS_DIR=LEFT_RIGHT
		DEPTH_AXIS_DIR=UP_DOWN
		ENERGY=180.00
		NOMINAL_DMAX=240.00
		SSD=2500.00
		SCD=1000.00
		BLOCK=0
		WEDGE_ANGLE=0.00
		FIELD_INPLANE=100.00
		FIELD_CROSSPLANE=100.00
		FIELD_TYPE=RECTANGULAR
		GANTRY=270.00
		GANTRY_UPRIGHT_POSITION=0
		GANTRY_ROTATION=CW
		COLL_ANGLE=0.00
		COLL_OFFSET_INPLANE=0.00
		COLL_OFFSET_CROSSPLANE=0.00
		SCAN_DEVICE=MP3
		SCAN_DEVICE_SETUP=BARA_LEFT_RIGHT
		ELECTROMETER=TANDEM_XDR
		RANGE_FIELD=HIGH
		RANGE_REFERENCE=AUTO
		DETECTOR=PLANE_PARALLEL_CHAMBER
		DETECTOR_RADIUS=0.00
		DETECTOR_NAME=PTW 34070 Bragg-Peak
		DETECTOR_SN=0000
		DETECTOR_CALIBRATION=1100000000.00
		DETECTOR_IS_CALIBRATED=0
		DETECTOR_REFERENCE=PLANE_PARALLEL_CHAMBER
		DETECTOR_REFERENCE_RADIUS=0.00
		DETECTOR_REFERENCE_NAME=PTW 34070 Bragg-Peak
		DETECTOR_REFERENCE_SN=0000
		DETECTOR_REFERENCE_IS_CALIBRATED=0
		DETECTOR_REFERENCE_CALIBRATION=1100000000.00
		DETECTOR_HV=400.0
		DETECTOR_REFERENCE_HV=400.0
		FILTER=FF
		REF_FIELD_DEPTH=0.00
		REF_FIELD_DEFINED=ISOCENTER
		REF_FIELD_INPLANE=40.00
		REF_FIELD_CROSSPLANE=40.00
		REF_SCAN_POSITIONS=0.00;10.00;20.00;30.00;40.00;50.00;60.00;70.00;80.00;90.00;100.00;110.00;120.00;125.00;130.00;135.00;140.00;145.00;150.00;155.00;160.00;165.00;170.00;175.00;180.00;185.00;190.00;192.00;194.00;196.00;198.00;200.00;202.00;204.00;206.00;208.00;210.00;212.00;214.00;216.00;218.00;220.00;222.00;224.00;226.00;228.00;230.00;232.00;234.00;236.00;238.00;240.00;242.00;244.00;246.00;248.00;250.00;252.00;254.00;256.00;258.00;260.00;262.00;264.00;266.00;268.00;270.00;272.00;274.00;276.00;278.00;280.00;282.00;284.00;286.00;288.00;290.00;
		SCAN_CURVETYPE=PDD
		SCAN_OFFAXIS_INPLANE=0.00
		SCAN_OFFAXIS_CROSSPLANE=0.00
		SCAN_ANGLE=0.00
		SCAN_DIAGONAL=NOT_DIAGONAL
		SCAN_DIRECTION=NEGATIVE
		MEAS_MEDIUM=WATER
		MEAS_PRESET=REFERENCE_DOSEMETER
		MEAS_TIME=0.100
		MEAS_UNIT=A.U.
		SCAN_SPEEDS=50.00; 1.00;150.00; 16.00;999.00; 50.00;
		DELAY_TIMES=50.00; 0.800;150.00; 0.400;999.90; 0.000;
		PRESSURE=1013.25
		TEMPERATURE=20.00
		NORM_TEMPERATURE=20.00
		CORRECTION_FACTOR=1.0000
		EXPECTED_MAX_DOSE_RATE=8.00
		BEGIN_DATA
			0		0.341
			0.524		0.341
			1.049		0.341
			1.573		0.341
			2.098		0.341
			2.622		0.341
			3.147		0.342
			3.671		0.342
			4.195		0.342
			4.72		0.342
			5.244		0.343
			5.769		0.343
			6.293		0.343
			6.818		0.344
			7.342		0.344
			7.866		0.345
			8.391		0.345
			8.915		0.346
			9.44		0.346
			9.964		0.347
			10.489		0.348
			11.013		0.349
			11.537		0.349
			12.062		0.35
			12.586		0.351
			13.111		0.352
			13.635		0.353
			14.16		0.353
			14.684		0.354
			15.208		0.355
			15.733		0.356
			16.257		0.357
			16.782		0.358
			17.306		0.359
			17.831		0.36
			18.355		0.361
			18.879		0.362
			19.404		0.363
			19.928		0.364
			20.453		0.364
			20.977		0.365
			21.502		0.366
			22.026		0.367
			22.55		0.368
			23.075		0.369
			23.599		0.37
			24.124		0.371
			24.648		0.371
			25.173		0.372
			25.697		0.373
			26.221		0.374
			26.746		0.374
			27.27		0.375
			27.795		0.376
			28.319		0.376
			28.844		0.377
			29.368		0.377
			29.892		0.378
			30.417		0.378
			30.941		0.379
			31.466		0.379
			31.99		0.38
			32.515		0.38
			33.039		0.381
			33.563		0.381
			34.088		0.382
			34.612		0.382
			35.137		0.382
			35.661		0.383
			36.186		0.383
			36.71		0.383
			37.234		0.383
			37.759		0.384
			38.283		0.384
			38.808		0.384
			39.332		0.385
			39.857		0.385
			40.381		0.385
			40.905		0.385
			41.43		0.386
			41.954		0.386
			42.479		0.386
			43.003		0.386
			43.528		0.386
			44.052		0.387
			44.576		0.387
			45.101		0.387
			45.625		0.387
			46.15		0.388
			46.674		0.388
			47.199		0.388
			47.723		0.388
			48.248		0.389
			48.772		0.389
			49.296		0.389
			49.821		0.389
			50.345		0.39
			50.87		0.39
			51.394		0.39
			51.918		0.39
			52.443		0.391
			52.967		0.391
			53.492		0.391
			54.016		0.392
			54.541		0.392
			55.065		0.392
			55.59		0.392
			56.114		0.393
			56.638		0.393
			57.163		0.393
			57.687		0.394
			58.212		0.394
			58.736		0.394
			59.261		0.395
			59.785		0.395
			60.309		0.395
			60.834		0.396
			61.358		0.396
			61.883		0.396
			62.407		0.397
			62.931		0.397
			63.456		0.397
			63.98		0.398
			64.505		0.398
			65.029		0.398
			65.554		0.399
			66.078		0.399
			66.603		0.4
			67.127		0.4
			67.651		0.4
			68.176		0.401
			68.7		0.401
			69.225		0.402
			69.749		0.402
			70.273		0.402
			70.798		0.403
			71.322		0.403
			71.847		0.404
			72.371		0.404
			72.896		0.404
			73.42		0.405
			73.945		0.405
			74.469		0.406
			74.993		0.406
			75.518		0.407
			76.042		0.407
			76.567		0.408
			77.091		0.408
			77.616		0.408
			78.14		0.409
			78.664		0.409
			79.189		0.41
			79.713		0.41
			80.238		0.411
			80.762		0.411
			81.286		0.412
			81.811		0.412
			82.335		0.413
			82.86		0.413
			83.384		0.414
			83.909		0.414
			84.433		0.415
			84.957		0.415
			85.482		0.416
			86.006		0.416
			86.531		0.417
			87.055		0.417
			87.58		0.418
			88.104		0.418
			88.629		0.419
			89.153		0.42
			89.677		0.42
			90.202		0.421
			90.726		0.421
			91.251		0.422
			91.775		0.422
			92.299		0.423
			92.824		0.424
			93.348		0.424
			93.873		0.425
			94.397		0.425
			94.922		0.426
			95.446		0.426
			95.97		0.427
			96.495		0.428
			97.019		0.428
			97.544		0.429
			98.068		0.429
			98.593		0.43
			99.117		0.431
			99.642		0.431
			100.166		0.432
			100.69		0.433
			101.215		0.433
			101.739		0.434
			102.264		0.434
			102.788		0.435
			103.312		0.436
			103.837		0.436
			104.361		0.437
			104.886		0.438
			105.41		0.438
			105.935		0.439
			106.459		0.44
			106.983		0.44
			107.508		0.441
			108.032		0.442
			108.557		0.442
			109.081		0.443
			109.606		0.444
			110.13		0.444
			110.654		0.445
			111.179		0.446
			111.703		0.447
			112.228		0.447
			112.752		0.448
			113.277		0.449
			113.801		0.449
			114.325		0.45
			114.85		0.451
			115.374		0.452
			115.899		0.452
			116.423		0.453
			116.948		0.454
			117.472		0.455
			117.996		0.455
			118.521		0.456
			119.045		0.457
			119.57		0.458
			120.094		0.458
			120.619		0.459
			121.143		0.46
			121.667		0.461
			122.192		0.461
			122.716		0.462
			123.241		0.463
			123.765		0.464
			124.29		0.465
			124.814		0.465
			125.338		0.466
			125.863		0.467
			126.387		0.468
			126.912		0.469
			127.436		0.469
			127.961		0.47
			128.485		0.471
			129.009		0.472
			129.534		0.473
			130.058		0.473
			130.583		0.474
			131.107		0.475
			131.632		0.476
			132.156		0.477
			132.681		0.478
			133.205		0.479
			133.729		0.479
			134.254		0.48
			134.778		0.481
			135.303		0.482
			135.827		0.483
			136.352		0.484
			136.876		0.485
			137.4		0.486
			137.925		0.486
			138.449		0.487
			138.974		0.488
			139.498		0.489
			140.023		0.49
			140.547		0.491
			141.071		0.492
			141.596		0.493
			142.12		0.494
			142.645		0.495
			143.169		0.496
			143.694		0.497
			144.218		0.498
			144.742		0.498
			145.267		0.499
			145.791		0.5
			146.316		0.501
			146.84		0.502
			147.365		0.503
			147.889		0.504
			148.413		0.505
			148.938		0.506
			149.462		0.507
			149.987		0.508
			150.511		0.509
			151.036		0.511
			151.56		0.512
			152.084		0.513
			152.609		0.514
			153.133		0.515
			153.658		0.516
			154.182		0.517
			154.707		0.518
			155.231		0.519
			155.755		0.52
			156.28		0.521
			156.804		0.523
			157.329		0.524
			157.853		0.525
			158.378		0.526
			158.902		0.527
			159.426		0.529
			159.951		0.53
			160.475		0.531
			161		0.532
			161.524		0.534
			162.049		0.535
			162.573		0.536
			163.097		0.537
			163.622		0.539
			164.146		0.54
			164.671		0.542
			165.195		0.543
			165.72		0.544
			166.244		0.546
			166.768		0.547
			167.293		0.549
			167.817		0.55
			168.342		0.552
			168.866		0.554
			169.391		0.555
			169.915		0.557
			170.439		0.558
			170.964		0.56
			171.488		0.562
			172.013		0.564
			172.537		0.566
			173.062		0.567
			173.586		0.569
			174.11		0.571
			174.635		0.573
			175.159		0.575
			175.684		0.578
			176.208		0.58
			176.733		0.582
			177.257		0.584
			177.781		0.587
			178.306		0.589
			178.83		0.591
			179.355		0.594
			179.879		0.597
			180.404		0.599
			180.928		0.602
			181.452		0.605
			181.977		0.608
			182.501		0.611
			183.026		0.614
			183.55		0.618
			184.075		0.621
			184.599		0.625
			185.123		0.628
			185.648		0.632
			186.172		0.636
			186.697		0.64
			187.221		0.644
			187.746		0.648
			188.27		0.653
			188.794		0.658
			189.319		0.662
			189.843		0.668
			190.368		0.673
			190.892		0.678
			191.417		0.684
			191.941		0.69
			192.465		0.696
			192.99		0.702
			193.514		0.709
			194.039		0.716
			194.563		0.723
			195.088		0.731
			195.612		0.739
			196.136		0.747
			196.661		0.755
			197.185		0.764
			197.71		0.774
			198.234		0.783
			198.759		0.794
			199.283		0.804
			199.807		0.816
			200.332		0.827
			200.856		0.84
			201.381		0.853
			201.905		0.866
			202.43		0.88
			202.954		0.896
			203.478		0.912
			204.003		0.929
			204.527		0.947
			205.052		0.967
			205.576		0.988
			206.101		1.011
			206.625		1.036
			207.149		1.063
			207.674		1.092
			208.198		1.124
			208.723		1.157
			209.247		1.191
			209.772		1.227
			210.296		1.261
			210.82		1.294
			211.345		1.323
			211.869		1.347
			212.394		1.362
			212.918		1.368
			213.443		1.362
			213.967		1.342
			214.491		1.309
			215.016		1.26
			215.54		1.198
			216.065		1.123
			216.589		1.038
			217.114		0.945
			217.638		0.846
			218.162		0.746
			218.687		0.647
			219.211		0.552
			219.736		0.464
			220.26		0.383
			220.785		0.311
			221.309		0.249
			221.833		0.196
			222.358		0.152
			222.882		0.116
			223.407		0.087
			223.931		0.065
			224.456		0.048
			224.98		0.035
			225.504		0.025
			226.029		0.018
			226.553		0.013
			227.078		0.009
			227.602		0.006
			228.127		0.004
			228.651		0.003
			229.175		0.002
			229.7		0.001
			230.224		0.001
			230.749		0.001
			231.273		0
			231.798		0
			232.322		0
			232.846		0
			233.371		0
			233.895		0
			234.42		0
			234.944		0
			235.469		0
			235.993		0
			236.517		0
			237.042		0
			237.566		0
			238.091		0
			238.615		0
			239.14		0
			239.664		0
			240.188		0
			240.713		0
			241.237		0
			241.762		0
			242.286		0
			242.811		0
			243.335		0
			243.859		0
			244.384		0
			244.908		0
			245.433		0
			245.957		0
			246.482		0
			247.006		0
			247.53		0
			248.055		0
			248.579		0
			249.104		0
			249.628		0
			250.153		0
			250.677		0
			251.201		0
			251.726		0
			252.25		0
			252.775		0
			253.299		0
			253.824		0
			254.348		0
			254.872		0
			255.397		0
			255.921		0
			256.446		0
			256.97		0
			257.495		0
			258.019		0
			258.543		0
			259.068		0
			259.592		0
			260.117		0
			260.641		0
			261.166		0
			261.69		0
		END_DATA
	END_SCAN  1
END_SCAN_DATA
