BEGIN_SCAN_DATA
	FORMAT=CC-Export V1.9                  
	FILE_CREATION_DATE=15-Aug-2018 12:07:13
	LAST_MODIFIED=15-Aug-2018 12:07:13
	BEGIN_SCAN  1
		TASK_NAME=tba PDD Profiles
		PROGRAM=tbaScan
		MEAS_DATE=15-Aug-2018 12:03:40
		LINAC=VARIAN PT
		MODALITY=P
		ISOCENTER=2500.00
		INPLANE_AXIS=Inplane
		CROSSPLANE_AXIS=Crossplane
		DEPTH_AXIS=Depth
		INPLANE_AXIS_DIR=GUN_TARGET
		CROSSPLANE_AXIS_DIR=LEFT_RIGHT
		DEPTH_AXIS_DIR=UP_DOWN
		ENERGY=185.00
		NOMINAL_DMAX=240.00
		SSD=2500.00
		SCD=1000.00
		BLOCK=0
		WEDGE_ANGLE=0.00
		FIELD_INPLANE=100.00
		FIELD_CROSSPLANE=100.00
		FIELD_TYPE=RECTANGULAR
		GANTRY=270.00
		GANTRY_UPRIGHT_POSITION=0
		GANTRY_ROTATION=CW
		COLL_ANGLE=0.00
		COLL_OFFSET_INPLANE=0.00
		COLL_OFFSET_CROSSPLANE=0.00
		SCAN_DEVICE=MP3
		SCAN_DEVICE_SETUP=BARA_LEFT_RIGHT
		ELECTROMETER=TANDEM_XDR
		RANGE_FIELD=HIGH
		RANGE_REFERENCE=AUTO
		DETECTOR=PLANE_PARALLEL_CHAMBER
		DETECTOR_RADIUS=0.00
		DETECTOR_NAME=PTW 34070 Bragg-Peak
		DETECTOR_SN=0000
		DETECTOR_CALIBRATION=1100000000.00
		DETECTOR_IS_CALIBRATED=0
		DETECTOR_REFERENCE=PLANE_PARALLEL_CHAMBER
		DETECTOR_REFERENCE_RADIUS=0.00
		DETECTOR_REFERENCE_NAME=PTW 34070 Bragg-Peak
		DETECTOR_REFERENCE_SN=0000
		DETECTOR_REFERENCE_IS_CALIBRATED=0
		DETECTOR_REFERENCE_CALIBRATION=1100000000.00
		DETECTOR_HV=400.0
		DETECTOR_REFERENCE_HV=400.0
		FILTER=FF
		REF_FIELD_DEPTH=0.00
		REF_FIELD_DEFINED=ISOCENTER
		REF_FIELD_INPLANE=40.00
		REF_FIELD_CROSSPLANE=40.00
		REF_SCAN_POSITIONS=0.00;10.00;20.00;30.00;40.00;50.00;60.00;70.00;80.00;90.00;100.00;110.00;120.00;125.00;130.00;135.00;140.00;145.00;150.00;155.00;160.00;165.00;170.00;175.00;180.00;185.00;190.00;192.00;194.00;196.00;198.00;200.00;202.00;204.00;206.00;208.00;210.00;212.00;214.00;216.00;218.00;220.00;222.00;224.00;226.00;228.00;230.00;232.00;234.00;236.00;238.00;240.00;242.00;244.00;246.00;248.00;250.00;252.00;254.00;256.00;258.00;260.00;262.00;264.00;266.00;268.00;270.00;272.00;274.00;276.00;278.00;280.00;282.00;284.00;286.00;288.00;290.00;
		SCAN_CURVETYPE=PDD
		SCAN_OFFAXIS_INPLANE=0.00
		SCAN_OFFAXIS_CROSSPLANE=0.00
		SCAN_ANGLE=0.00
		SCAN_DIAGONAL=NOT_DIAGONAL
		SCAN_DIRECTION=NEGATIVE
		MEAS_MEDIUM=WATER
		MEAS_PRESET=REFERENCE_DOSEMETER
		MEAS_TIME=0.100
		MEAS_UNIT=A.U.
		SCAN_SPEEDS=50.00; 1.00;150.00; 16.00;999.00; 50.00;
		DELAY_TIMES=50.00; 0.800;150.00; 0.400;999.90; 0.000;
		PRESSURE=1013.25
		TEMPERATURE=20.00
		NORM_TEMPERATURE=20.00
		CORRECTION_FACTOR=1.0000
		EXPECTED_MAX_DOSE_RATE=8.00
		BEGIN_DATA
			0		0.343
			0.546		0.343
			1.093		0.342
			1.639		0.342
			2.186		0.343
			2.732		0.343
			3.279		0.343
			3.825		0.343
			4.372		0.343
			4.918		0.344
			5.465		0.344
			6.011		0.344
			6.558		0.345
			7.104		0.345
			7.651		0.346
			8.197		0.346
			8.744		0.347
			9.29		0.347
			9.837		0.348
			10.383		0.349
			10.929		0.349
			11.476		0.35
			12.022		0.351
			12.569		0.352
			13.115		0.352
			13.662		0.353
			14.208		0.354
			14.755		0.355
			15.301		0.356
			15.848		0.357
			16.394		0.358
			16.941		0.359
			17.487		0.36
			18.034		0.361
			18.58		0.361
			19.127		0.362
			19.673		0.363
			20.219		0.364
			20.766		0.365
			21.312		0.366
			21.859		0.367
			22.405		0.368
			22.952		0.369
			23.498		0.37
			24.045		0.371
			24.591		0.372
			25.138		0.372
			25.684		0.373
			26.231		0.374
			26.777		0.375
			27.324		0.375
			27.87		0.376
			28.417		0.377
			28.963		0.377
			29.51		0.378
			30.056		0.378
			30.603		0.379
			31.149		0.38
			31.695		0.38
			32.242		0.38
			32.788		0.381
			33.335		0.381
			33.881		0.382
			34.428		0.382
			34.974		0.382
			35.521		0.383
			36.067		0.383
			36.614		0.383
			37.16		0.384
			37.707		0.384
			38.253		0.384
			38.8		0.385
			39.346		0.385
			39.893		0.385
			40.439		0.385
			40.986		0.386
			41.532		0.386
			42.078		0.386
			42.625		0.386
			43.171		0.387
			43.718		0.387
			44.264		0.387
			44.811		0.387
			45.357		0.387
			45.904		0.388
			46.45		0.388
			46.997		0.388
			47.543		0.388
			48.09		0.389
			48.636		0.389
			49.183		0.389
			49.729		0.389
			50.276		0.389
			50.822		0.39
			51.368		0.39
			51.915		0.39
			52.461		0.39
			53.008		0.391
			53.554		0.391
			54.101		0.391
			54.647		0.392
			55.194		0.392
			55.74		0.392
			56.287		0.392
			56.833		0.393
			57.38		0.393
			57.926		0.393
			58.473		0.393
			59.019		0.394
			59.566		0.394
			60.112		0.394
			60.659		0.395
			61.205		0.395
			61.751		0.395
			62.298		0.396
			62.844		0.396
			63.391		0.396
			63.937		0.397
			64.484		0.397
			65.03		0.397
			65.577		0.398
			66.123		0.398
			66.67		0.398
			67.216		0.399
			67.763		0.399
			68.309		0.399
			68.856		0.4
			69.402		0.4
			69.949		0.4
			70.495		0.401
			71.041		0.401
			71.588		0.402
			72.134		0.402
			72.681		0.402
			73.227		0.403
			73.774		0.403
			74.32		0.403
			74.867		0.404
			75.413		0.404
			75.96		0.405
			76.506		0.405
			77.053		0.406
			77.599		0.406
			78.146		0.406
			78.692		0.407
			79.239		0.407
			79.785		0.408
			80.331		0.408
			80.878		0.409
			81.424		0.409
			81.971		0.409
			82.517		0.41
			83.064		0.41
			83.61		0.411
			84.157		0.411
			84.703		0.412
			85.25		0.412
			85.796		0.413
			86.343		0.413
			86.889		0.414
			87.436		0.414
			87.982		0.415
			88.529		0.415
			89.075		0.416
			89.622		0.416
			90.168		0.417
			90.715		0.417
			91.261		0.418
			91.808		0.418
			92.354		0.419
			92.9		0.419
			93.447		0.42
			93.993		0.42
			94.54		0.421
			95.086		0.421
			95.633		0.422
			96.179		0.422
			96.726		0.423
			97.272		0.423
			97.819		0.424
			98.365		0.425
			98.912		0.425
			99.458		0.426
			100.005		0.426
			100.551		0.427
			101.097		0.427
			101.644		0.428
			102.19		0.429
			102.737		0.429
			103.283		0.43
			103.83		0.43
			104.376		0.431
			104.923		0.432
			105.469		0.432
			106.016		0.433
			106.562		0.433
			107.109		0.434
			107.655		0.435
			108.202		0.435
			108.748		0.436
			109.295		0.436
			109.841		0.437
			110.388		0.438
			110.934		0.438
			111.48		0.439
			112.027		0.44
			112.573		0.44
			113.12		0.441
			113.666		0.442
			114.213		0.442
			114.759		0.443
			115.306		0.444
			115.852		0.444
			116.399		0.445
			116.945		0.446
			117.492		0.446
			118.038		0.447
			118.585		0.448
			119.131		0.448
			119.678		0.449
			120.224		0.45
			120.771		0.45
			121.317		0.451
			121.863		0.452
			122.41		0.453
			122.956		0.453
			123.503		0.454
			124.049		0.455
			124.596		0.455
			125.142		0.456
			125.689		0.457
			126.235		0.458
			126.782		0.458
			127.328		0.459
			127.875		0.46
			128.421		0.461
			128.968		0.461
			129.514		0.462
			130.061		0.463
			130.607		0.464
			131.154		0.464
			131.7		0.465
			132.246		0.466
			132.793		0.467
			133.339		0.467
			133.886		0.468
			134.432		0.469
			134.979		0.47
			135.525		0.471
			136.072		0.471
			136.618		0.472
			137.165		0.473
			137.711		0.474
			138.258		0.475
			138.804		0.476
			139.351		0.476
			139.897		0.477
			140.444		0.478
			140.99		0.479
			141.536		0.48
			142.083		0.48
			142.629		0.481
			143.176		0.482
			143.722		0.483
			144.269		0.484
			144.815		0.485
			145.362		0.486
			145.908		0.487
			146.455		0.487
			147.001		0.488
			147.548		0.489
			148.094		0.49
			148.641		0.491
			149.187		0.492
			149.734		0.493
			150.28		0.494
			150.827		0.495
			151.373		0.496
			151.919		0.496
			152.466		0.497
			153.012		0.498
			153.559		0.499
			154.105		0.5
			154.652		0.501
			155.198		0.502
			155.745		0.503
			156.291		0.504
			156.838		0.505
			157.384		0.506
			157.931		0.507
			158.477		0.508
			159.024		0.509
			159.57		0.51
			160.117		0.511
			160.663		0.512
			161.21		0.513
			161.756		0.514
			162.302		0.515
			162.849		0.516
			163.395		0.518
			163.942		0.519
			164.488		0.52
			165.035		0.521
			165.581		0.522
			166.128		0.523
			166.674		0.524
			167.221		0.526
			167.767		0.527
			168.314		0.528
			168.86		0.529
			169.407		0.53
			169.953		0.532
			170.5		0.533
			171.046		0.534
			171.593		0.536
			172.139		0.537
			172.685		0.538
			173.232		0.54
			173.778		0.541
			174.325		0.542
			174.871		0.544
			175.418		0.545
			175.964		0.547
			176.511		0.548
			177.057		0.55
			177.604		0.551
			178.15		0.553
			178.697		0.555
			179.243		0.556
			179.79		0.558
			180.336		0.56
			180.883		0.562
			181.429		0.563
			181.975		0.565
			182.522		0.567
			183.068		0.569
			183.615		0.571
			184.161		0.573
			184.708		0.575
			185.254		0.577
			185.801		0.58
			186.347		0.582
			186.894		0.584
			187.44		0.587
			187.987		0.589
			188.533		0.592
			189.08		0.594
			189.626		0.597
			190.173		0.6
			190.719		0.603
			191.266		0.606
			191.812		0.609
			192.358		0.612
			192.905		0.615
			193.451		0.619
			193.998		0.622
			194.544		0.626
			195.091		0.63
			195.637		0.634
			196.184		0.638
			196.73		0.642
			197.277		0.646
			197.823		0.651
			198.37		0.656
			198.916		0.66
			199.463		0.665
			200.009		0.671
			200.556		0.676
			201.102		0.682
			201.649		0.688
			202.195		0.694
			202.741		0.701
			203.288		0.707
			203.834		0.714
			204.381		0.721
			204.927		0.729
			205.474		0.737
			206.02		0.745
			206.567		0.754
			207.113		0.763
			207.66		0.772
			208.206		0.782
			208.753		0.792
			209.299		0.803
			209.846		0.814
			210.392		0.826
			210.939		0.838
			211.485		0.851
			212.032		0.865
			212.578		0.879
			213.124		0.895
			213.671		0.911
			214.217		0.928
			214.764		0.946
			215.31		0.966
			215.857		0.988
			216.403		1.011
			216.95		1.037
			217.496		1.065
			218.043		1.095
			218.589		1.127
			219.136		1.162
			219.682		1.198
			220.229		1.235
			220.775		1.272
			221.322		1.306
			221.868		1.336
			222.414		1.359
			222.961		1.373
			223.507		1.376
			224.054		1.365
			224.6		1.339
			225.147		1.297
			225.693		1.239
			226.24		1.167
			226.786		1.083
			227.333		0.988
			227.879		0.887
			228.426		0.782
			228.972		0.678
			229.519		0.578
			230.065		0.483
			230.612		0.397
			231.158		0.321
			231.705		0.255
			232.251		0.199
			232.797		0.153
			233.344		0.115
			233.89		0.086
			234.437		0.063
			234.983		0.046
			235.53		0.033
			236.076		0.023
			236.623		0.016
			237.169		0.012
			237.716		0.008
			238.262		0.006
			238.809		0.004
			239.355		0.003
			239.902		0.002
			240.448		0.001
			240.995		0.001
			241.541		0.001
			242.088		0
			242.634		0
			243.18		0
			243.727		0
			244.273		0
			244.82		0
			245.366		0
			245.913		0
			246.459		0
			247.006		0
			247.552		0
			248.099		0
			248.645		0
			249.192		0
			249.738		0
			250.285		0
			250.831		0
			251.378		0
			251.924		0
			252.471		0
			253.017		0
			253.563		0
			254.11		0
			254.656		0
			255.203		0
			255.749		0
			256.296		0
			256.842		0
			257.389		0
			257.935		0
			258.482		0
			259.028		0
			259.575		0
			260.121		0
			260.668		0
			261.214		0
			261.761		0
			262.307		0
			262.853		0
			263.4		0
			263.946		0
			264.493		0
			265.039		0
			265.586		0
			266.132		0
			266.679		0
			267.225		0
			267.772		0
			268.318		0
			268.865		0
			269.411		0
			269.958		0
			270.504		0
			271.051		0
			271.597		0
			272.144		0
			272.69		0
		END_DATA
	END_SCAN  1
END_SCAN_DATA
