BEGIN_SCAN_DATA
	FORMAT=CC-Export V1.9                  
	FILE_CREATION_DATE=15-Aug-2018 12:07:13
	LAST_MODIFIED=15-Aug-2018 12:07:13
	BEGIN_SCAN  1
		TASK_NAME=tba PDD Profiles
		PROGRAM=tbaScan
		MEAS_DATE=15-Aug-2018 12:03:40
		LINAC=VARIAN PT
		MODALITY=P
		ISOCENTER=2500.00
		INPLANE_AXIS=Inplane
		CROSSPLANE_AXIS=Crossplane
		DEPTH_AXIS=Depth
		INPLANE_AXIS_DIR=GUN_TARGET
		CROSSPLANE_AXIS_DIR=LEFT_RIGHT
		DEPTH_AXIS_DIR=UP_DOWN
		ENERGY=190.00
		NOMINAL_DMAX=240.00
		SSD=2500.00
		SCD=1000.00
		BLOCK=0
		WEDGE_ANGLE=0.00
		FIELD_INPLANE=100.00
		FIELD_CROSSPLANE=100.00
		FIELD_TYPE=RECTANGULAR
		GANTRY=270.00
		GANTRY_UPRIGHT_POSITION=0
		GANTRY_ROTATION=CW
		COLL_ANGLE=0.00
		COLL_OFFSET_INPLANE=0.00
		COLL_OFFSET_CROSSPLANE=0.00
		SCAN_DEVICE=MP3
		SCAN_DEVICE_SETUP=BARA_LEFT_RIGHT
		ELECTROMETER=TANDEM_XDR
		RANGE_FIELD=HIGH
		RANGE_REFERENCE=AUTO
		DETECTOR=PLANE_PARALLEL_CHAMBER
		DETECTOR_RADIUS=0.00
		DETECTOR_NAME=PTW 34070 Bragg-Peak
		DETECTOR_SN=0000
		DETECTOR_CALIBRATION=1100000000.00
		DETECTOR_IS_CALIBRATED=0
		DETECTOR_REFERENCE=PLANE_PARALLEL_CHAMBER
		DETECTOR_REFERENCE_RADIUS=0.00
		DETECTOR_REFERENCE_NAME=PTW 34070 Bragg-Peak
		DETECTOR_REFERENCE_SN=0000
		DETECTOR_REFERENCE_IS_CALIBRATED=0
		DETECTOR_REFERENCE_CALIBRATION=1100000000.00
		DETECTOR_HV=400.0
		DETECTOR_REFERENCE_HV=400.0
		FILTER=FF
		REF_FIELD_DEPTH=0.00
		REF_FIELD_DEFINED=ISOCENTER
		REF_FIELD_INPLANE=40.00
		REF_FIELD_CROSSPLANE=40.00
		REF_SCAN_POSITIONS=0.00;10.00;20.00;30.00;40.00;50.00;60.00;70.00;80.00;90.00;100.00;110.00;120.00;125.00;130.00;135.00;140.00;145.00;150.00;155.00;160.00;165.00;170.00;175.00;180.00;185.00;190.00;192.00;194.00;196.00;198.00;200.00;202.00;204.00;206.00;208.00;210.00;212.00;214.00;216.00;218.00;220.00;222.00;224.00;226.00;228.00;230.00;232.00;234.00;236.00;238.00;240.00;242.00;244.00;246.00;248.00;250.00;252.00;254.00;256.00;258.00;260.00;262.00;264.00;266.00;268.00;270.00;272.00;274.00;276.00;278.00;280.00;282.00;284.00;286.00;288.00;290.00;
		SCAN_CURVETYPE=PDD
		SCAN_OFFAXIS_INPLANE=0.00
		SCAN_OFFAXIS_CROSSPLANE=0.00
		SCAN_ANGLE=0.00
		SCAN_DIAGONAL=NOT_DIAGONAL
		SCAN_DIRECTION=NEGATIVE
		MEAS_MEDIUM=WATER
		MEAS_PRESET=REFERENCE_DOSEMETER
		MEAS_TIME=0.100
		MEAS_UNIT=A.U.
		SCAN_SPEEDS=50.00; 1.00;150.00; 16.00;999.00; 50.00;
		DELAY_TIMES=50.00; 0.800;150.00; 0.400;999.90; 0.000;
		PRESSURE=1013.25
		TEMPERATURE=20.00
		NORM_TEMPERATURE=20.00
		CORRECTION_FACTOR=1.0000
		EXPECTED_MAX_DOSE_RATE=8.00
		BEGIN_DATA
			0		0.343
			0.58		0.343
			1.159		0.343
			1.739		0.343
			2.318		0.343
			2.898		0.343
			3.477		0.343
			4.057		0.344
			4.636		0.344
			5.216		0.344
			5.795		0.344
			6.375		0.345
			6.954		0.345
			7.534		0.346
			8.114		0.346
			8.693		0.347
			9.273		0.347
			9.852		0.348
			10.432		0.349
			11.011		0.349
			11.591		0.35
			12.17		0.351
			12.75		0.352
			13.329		0.353
			13.909		0.353
			14.488		0.354
			15.068		0.355
			15.648		0.356
			16.227		0.357
			16.807		0.358
			17.386		0.359
			17.966		0.36
			18.545		0.361
			19.125		0.362
			19.704		0.363
			20.284		0.364
			20.863		0.365
			21.443		0.366
			22.022		0.367
			22.602		0.368
			23.182		0.369
			23.761		0.37
			24.341		0.371
			24.92		0.372
			25.5		0.372
			26.079		0.373
			26.659		0.374
			27.238		0.375
			27.818		0.376
			28.397		0.376
			28.977		0.377
			29.556		0.378
			30.136		0.378
			30.716		0.379
			31.295		0.379
			31.875		0.38
			32.454		0.38
			33.034		0.381
			33.613		0.381
			34.193		0.382
			34.772		0.382
			35.352		0.382
			35.931		0.383
			36.511		0.383
			37.09		0.383
			37.67		0.384
			38.25		0.384
			38.829		0.384
			39.409		0.385
			39.988		0.385
			40.568		0.385
			41.147		0.385
			41.727		0.386
			42.306		0.386
			42.886		0.386
			43.465		0.386
			44.045		0.386
			44.625		0.387
			45.204		0.387
			45.784		0.387
			46.363		0.387
			46.943		0.388
			47.522		0.388
			48.102		0.388
			48.681		0.388
			49.261		0.388
			49.84		0.389
			50.42		0.389
			50.999		0.389
			51.579		0.389
			52.159		0.39
			52.738		0.39
			53.318		0.39
			53.897		0.39
			54.477		0.39
			55.056		0.391
			55.636		0.391
			56.215		0.391
			56.795		0.392
			57.374		0.392
			57.954		0.392
			58.533		0.392
			59.113		0.393
			59.693		0.393
			60.272		0.393
			60.852		0.393
			61.431		0.394
			62.011		0.394
			62.59		0.394
			63.17		0.395
			63.749		0.395
			64.329		0.395
			64.908		0.396
			65.488		0.396
			66.067		0.396
			66.647		0.396
			67.227		0.397
			67.806		0.397
			68.386		0.397
			68.965		0.398
			69.545		0.398
			70.124		0.398
			70.704		0.399
			71.283		0.399
			71.863		0.4
			72.442		0.4
			73.022		0.4
			73.602		0.401
			74.181		0.401
			74.76		0.401
			75.34		0.402
			75.92		0.402
			76.499		0.402
			77.079		0.403
			77.658		0.403
			78.238		0.404
			78.817		0.404
			79.397		0.404
			79.976		0.405
			80.556		0.405
			81.135		0.406
			81.715		0.406
			82.295		0.406
			82.874		0.407
			83.454		0.407
			84.033		0.408
			84.613		0.408
			85.192		0.409
			85.772		0.409
			86.351		0.409
			86.931		0.41
			87.51		0.41
			88.09		0.411
			88.67		0.411
			89.249		0.412
			89.829		0.412
			90.408		0.413
			90.988		0.413
			91.567		0.414
			92.147		0.414
			92.726		0.415
			93.306		0.415
			93.885		0.416
			94.465		0.416
			95.044		0.417
			95.624		0.417
			96.203		0.418
			96.783		0.418
			97.363		0.419
			97.942		0.419
			98.522		0.42
			99.101		0.42
			99.681		0.421
			100.26		0.421
			100.84		0.422
			101.419		0.422
			101.999		0.423
			102.578		0.423
			103.158		0.424
			103.737		0.424
			104.317		0.425
			104.897		0.425
			105.476		0.426
			106.056		0.427
			106.635		0.427
			107.215		0.428
			107.794		0.428
			108.374		0.429
			108.953		0.429
			109.533		0.43
			110.112		0.431
			110.692		0.431
			111.272		0.432
			111.851		0.432
			112.431		0.433
			113.01		0.434
			113.59		0.434
			114.169		0.435
			114.749		0.435
			115.328		0.436
			115.908		0.437
			116.487		0.437
			117.067		0.438
			117.646		0.439
			118.226		0.439
			118.806		0.44
			119.385		0.44
			119.965		0.441
			120.544		0.442
			121.124		0.442
			121.703		0.443
			122.283		0.444
			122.862		0.444
			123.442		0.445
			124.021		0.446
			124.601		0.446
			125.18		0.447
			125.76		0.448
			126.34		0.448
			126.919		0.449
			127.499		0.45
			128.078		0.451
			128.658		0.451
			129.237		0.452
			129.817		0.453
			130.396		0.453
			130.976		0.454
			131.555		0.455
			132.135		0.455
			132.714		0.456
			133.294		0.457
			133.874		0.458
			134.453		0.458
			135.033		0.459
			135.612		0.46
			136.192		0.461
			136.771		0.461
			137.351		0.462
			137.93		0.463
			138.51		0.464
			139.089		0.464
			139.669		0.465
			140.248		0.466
			140.828		0.467
			141.408		0.467
			141.987		0.468
			142.567		0.469
			143.146		0.47
			143.726		0.471
			144.305		0.471
			144.885		0.472
			145.464		0.473
			146.044		0.474
			146.623		0.475
			147.203		0.475
			147.782		0.476
			148.362		0.477
			148.942		0.478
			149.521		0.479
			150.101		0.48
			150.68		0.48
			151.26		0.481
			151.839		0.482
			152.419		0.483
			152.998		0.484
			153.578		0.485
			154.157		0.486
			154.737		0.486
			155.316		0.487
			155.896		0.488
			156.476		0.489
			157.055		0.49
			157.635		0.491
			158.214		0.492
			158.794		0.493
			159.373		0.494
			159.953		0.494
			160.532		0.495
			161.112		0.496
			161.691		0.497
			162.271		0.498
			162.85		0.499
			163.43		0.5
			164.01		0.501
			164.589		0.502
			165.169		0.503
			165.748		0.504
			166.328		0.505
			166.907		0.506
			167.487		0.507
			168.066		0.508
			168.646		0.509
			169.225		0.51
			169.805		0.511
			170.384		0.512
			170.964		0.513
			171.544		0.514
			172.123		0.516
			172.703		0.517
			173.282		0.518
			173.862		0.519
			174.441		0.52
			175.021		0.521
			175.6		0.522
			176.18		0.524
			176.759		0.525
			177.339		0.526
			177.918		0.527
			178.498		0.529
			179.078		0.53
			179.657		0.531
			180.237		0.532
			180.816		0.534
			181.396		0.535
			181.975		0.536
			182.555		0.538
			183.134		0.539
			183.714		0.541
			184.293		0.542
			184.873		0.544
			185.453		0.545
			186.032		0.547
			186.612		0.548
			187.191		0.55
			187.771		0.552
			188.35		0.553
			188.93		0.555
			189.509		0.557
			190.089		0.559
			190.668		0.561
			191.248		0.562
			191.827		0.564
			192.407		0.566
			192.987		0.568
			193.566		0.571
			194.146		0.573
			194.725		0.575
			195.305		0.577
			195.884		0.58
			196.464		0.582
			197.043		0.584
			197.623		0.587
			198.202		0.59
			198.782		0.592
			199.361		0.595
			199.941		0.598
			200.521		0.601
			201.1		0.604
			201.68		0.607
			202.259		0.611
			202.839		0.614
			203.418		0.618
			203.998		0.621
			204.577		0.625
			205.157		0.629
			205.736		0.633
			206.316		0.637
			206.895		0.642
			207.475		0.646
			208.055		0.651
			208.634		0.656
			209.214		0.661
			209.793		0.667
			210.373		0.672
			210.952		0.678
			211.532		0.684
			212.111		0.69
			212.691		0.697
			213.27		0.704
			213.85		0.711
			214.429		0.718
			215.009		0.726
			215.589		0.734
			216.168		0.743
			216.748		0.752
			217.327		0.761
			217.907		0.77
			218.486		0.781
			219.066		0.791
			219.645		0.802
			220.225		0.814
			220.804		0.826
			221.384		0.839
			221.963		0.852
			222.543		0.866
			223.123		0.881
			223.702		0.897
			224.282		0.914
			224.861		0.932
			225.441		0.951
			226.02		0.972
			226.6		0.995
			227.179		1.02
			227.759		1.048
			228.338		1.078
			228.918		1.112
			229.497		1.148
			230.077		1.186
			230.657		1.225
			231.236		1.265
			231.816		1.302
			232.395		1.336
			232.975		1.362
			233.554		1.379
			234.134		1.382
			234.713		1.37
			235.293		1.341
			235.872		1.294
			236.452		1.23
			237.031		1.149
			237.611		1.055
			238.191		0.95
			238.77		0.84
			239.35		0.729
			239.929		0.619
			240.509		0.516
			241.088		0.422
			241.668		0.338
			242.247		0.265
			242.827		0.204
			243.406		0.155
			243.986		0.115
			244.565		0.084
			245.145		0.061
			245.725		0.043
			246.304		0.03
			246.884		0.021
			247.463		0.014
			248.043		0.01
			248.622		0.007
			249.202		0.005
			249.781		0.003
			250.361		0.002
			250.94		0.001
			251.52		0.001
			252.099		0.001
			252.679		0
			253.259		0
			253.838		0
			254.418		0
			254.997		0
			255.577		0
			256.156		0
			256.736		0
			257.315		0
			257.895		0
			258.474		0
			259.054		0
			259.634		0
			260.213		0
			260.793		0
			261.372		0
			261.952		0
			262.531		0
			263.111		0
			263.69		0
			264.27		0
			264.849		0
			265.429		0
			266.008		0
			266.588		0
			267.168		0
			267.747		0
			268.327		0
			268.906		0
			269.486		0
			270.065		0
			270.645		0
			271.224		0
			271.804		0
			272.383		0
			272.963		0
			273.542		0
			274.122		0
			274.702		0
			275.281		0
			275.861		0
			276.44		0
			277.02		0
			277.599		0
			278.179		0
			278.758		0
			279.338		0
			279.917		0
			280.497		0
			281.076		0
			281.656		0
			282.236		0
			282.815		0
			283.395		0
			283.974		0
			284.554		0
			285.133		0
			285.713		0
			286.292		0
			286.872		0
			287.451		0
			288.031		0
			288.61		0
			289.19		0
		END_DATA
	END_SCAN  1
END_SCAN_DATA
