BEGIN_SCAN_DATA
	FORMAT=CC-Export V1.9                  
	FILE_CREATION_DATE=15-Aug-2018 11:54:40
	LAST_MODIFIED=15-Aug-2018 11:54:40
	BEGIN_SCAN  1
		TASK_NAME=tba PDD Profiles
		PROGRAM=tbaScan
		MEAS_DATE=15-Aug-2018 11:52:08
		LINAC=VARIAN PT
		MODALITY=P
		ISOCENTER=2500.00
		INPLANE_AXIS=Inplane
		CROSSPLANE_AXIS=Crossplane
		DEPTH_AXIS=Depth
		INPLANE_AXIS_DIR=GUN_TARGET
		CROSSPLANE_AXIS_DIR=LEFT_RIGHT
		DEPTH_AXIS_DIR=UP_DOWN
		ENERGY=195.00
		NOMINAL_DMAX=305.00
		SSD=2500.00
		SCD=1000.00
		BLOCK=0
		WEDGE_ANGLE=0.00
		FIELD_INPLANE=100.00
		FIELD_CROSSPLANE=100.00
		FIELD_TYPE=RECTANGULAR
		GANTRY=270.00
		GANTRY_UPRIGHT_POSITION=0
		GANTRY_ROTATION=CW
		COLL_ANGLE=0.00
		COLL_OFFSET_INPLANE=0.00
		COLL_OFFSET_CROSSPLANE=0.00
		SCAN_DEVICE=MP3
		SCAN_DEVICE_SETUP=BARA_LEFT_RIGHT
		ELECTROMETER=TANDEM_XDR
		RANGE_FIELD=HIGH
		RANGE_REFERENCE=AUTO
		DETECTOR=PLANE_PARALLEL_CHAMBER
		DETECTOR_RADIUS=0.00
		DETECTOR_NAME=PTW 34070 Bragg-Peak
		DETECTOR_SN=0000
		DETECTOR_CALIBRATION=1100000000.00
		DETECTOR_IS_CALIBRATED=0
		DETECTOR_REFERENCE=PLANE_PARALLEL_CHAMBER
		DETECTOR_REFERENCE_RADIUS=0.00
		DETECTOR_REFERENCE_NAME=PTW 34070 Bragg-Peak
		DETECTOR_REFERENCE_SN=0000
		DETECTOR_REFERENCE_IS_CALIBRATED=0
		DETECTOR_REFERENCE_CALIBRATION=1100000000.00
		DETECTOR_HV=400.0
		DETECTOR_REFERENCE_HV=400.0
		FILTER=FF
		REF_FIELD_DEPTH=0.00
		REF_FIELD_DEFINED=ISOCENTER
		REF_FIELD_INPLANE=40.00
		REF_FIELD_CROSSPLANE=40.00
		REF_SCAN_POSITIONS=0.00;10.00;20.00;30.00;40.00;50.00;60.00;70.00;80.00;90.00;100.00;110.00;120.00;125.00;130.00;135.00;140.00;145.00;150.00;155.00;160.00;165.00;170.00;175.00;180.00;185.00;190.00;192.00;194.00;196.00;198.00;200.00;202.00;204.00;206.00;208.00;210.00;212.00;214.00;216.00;218.00;220.00;222.00;224.00;226.00;228.00;230.00;232.00;234.00;236.00;238.00;240.00;242.00;244.00;246.00;248.00;250.00;252.00;254.00;256.00;258.00;260.00;262.00;264.00;266.00;268.00;270.00;272.00;274.00;276.00;278.00;280.00;282.00;284.00;286.00;288.00;290.00;
		SCAN_CURVETYPE=PDD
		SCAN_OFFAXIS_INPLANE=0.00
		SCAN_OFFAXIS_CROSSPLANE=0.00
		SCAN_ANGLE=0.00
		SCAN_DIAGONAL=NOT_DIAGONAL
		SCAN_DIRECTION=NEGATIVE
		MEAS_MEDIUM=WATER
		MEAS_PRESET=REFERENCE_DOSEMETER
		MEAS_TIME=0.100
		MEAS_UNIT=A.U.
		SCAN_SPEEDS=50.00; 1.00;150.00; 16.00;999.00; 50.00;
		DELAY_TIMES=50.00; 0.800;150.00; 0.400;999.90; 0.000;
		PRESSURE=1013.25
		TEMPERATURE=20.00
		NORM_TEMPERATURE=20.00
		CORRECTION_FACTOR=1.0000
		EXPECTED_MAX_DOSE_RATE=8.00
		BEGIN_DATA
			0		0.343
			0.599		0.343
			1.199		0.343
			1.798		0.343
			2.398		0.344
			2.997		0.344
			3.596		0.344
			4.196		0.344
			4.795		0.344
			5.394		0.345
			5.994		0.345
			6.593		0.345
			7.193		0.346
			7.792		0.346
			8.391		0.347
			8.991		0.347
			9.59		0.348
			10.189		0.349
			10.789		0.349
			11.388		0.35
			11.988		0.351
			12.587		0.352
			13.186		0.353
			13.786		0.353
			14.385		0.354
			14.984		0.355
			15.584		0.356
			16.183		0.357
			16.783		0.358
			17.382		0.359
			17.981		0.36
			18.581		0.361
			19.18		0.362
			19.779		0.363
			20.379		0.364
			20.978		0.365
			21.578		0.366
			22.177		0.367
			22.776		0.368
			23.376		0.369
			23.975		0.37
			24.574		0.371
			25.174		0.372
			25.773		0.373
			26.373		0.374
			26.972		0.374
			27.571		0.375
			28.171		0.376
			28.77		0.377
			29.37		0.377
			29.969		0.378
			30.568		0.379
			31.168		0.379
			31.767		0.38
			32.367		0.38
			32.966		0.381
			33.565		0.381
			34.165		0.382
			34.764		0.382
			35.363		0.382
			35.963		0.383
			36.562		0.383
			37.161		0.383
			37.761		0.384
			38.36		0.384
			38.96		0.384
			39.559		0.385
			40.158		0.385
			40.758		0.385
			41.357		0.385
			41.957		0.386
			42.556		0.386
			43.155		0.386
			43.755		0.386
			44.354		0.386
			44.953		0.387
			45.553		0.387
			46.152		0.387
			46.751		0.387
			47.351		0.387
			47.95		0.388
			48.55		0.388
			49.149		0.388
			49.748		0.388
			50.348		0.388
			50.947		0.389
			51.547		0.389
			52.146		0.389
			52.745		0.389
			53.345		0.39
			53.944		0.39
			54.543		0.39
			55.143		0.39
			55.742		0.39
			56.342		0.391
			56.941		0.391
			57.54		0.391
			58.14		0.391
			58.739		0.392
			59.339		0.392
			59.938		0.392
			60.537		0.392
			61.137		0.393
			61.736		0.393
			62.335		0.393
			62.935		0.393
			63.534		0.394
			64.133		0.394
			64.733		0.394
			65.332		0.395
			65.932		0.395
			66.531		0.395
			67.13		0.395
			67.73		0.396
			68.329		0.396
			68.929		0.396
			69.528		0.397
			70.127		0.397
			70.727		0.397
			71.326		0.398
			71.925		0.398
			72.525		0.398
			73.124		0.399
			73.724		0.399
			74.323		0.399
			74.922		0.4
			75.522		0.4
			76.121		0.4
			76.72		0.401
			77.32		0.401
			77.919		0.401
			78.519		0.402
			79.118		0.402
			79.717		0.402
			80.317		0.403
			80.916		0.403
			81.516		0.403
			82.115		0.404
			82.714		0.404
			83.314		0.405
			83.913		0.405
			84.512		0.405
			85.112		0.406
			85.711		0.406
			86.311		0.407
			86.91		0.407
			87.509		0.407
			88.109		0.408
			88.708		0.408
			89.307		0.409
			89.907		0.409
			90.506		0.409
			91.106		0.41
			91.705		0.41
			92.304		0.411
			92.904		0.411
			93.503		0.412
			94.103		0.412
			94.702		0.412
			95.301		0.413
			95.901		0.413
			96.5		0.414
			97.099		0.414
			97.699		0.415
			98.298		0.415
			98.897		0.416
			99.497		0.416
			100.096		0.417
			100.696		0.417
			101.295		0.418
			101.894		0.418
			102.494		0.419
			103.093		0.419
			103.693		0.42
			104.292		0.42
			104.891		0.421
			105.491		0.421
			106.09		0.422
			106.689		0.422
			107.289		0.423
			107.888		0.423
			108.488		0.424
			109.087		0.424
			109.686		0.425
			110.286		0.425
			110.885		0.426
			111.484		0.426
			112.084		0.427
			112.683		0.427
			113.283		0.428
			113.882		0.428
			114.481		0.429
			115.081		0.43
			115.68		0.43
			116.279		0.431
			116.879		0.431
			117.478		0.432
			118.078		0.432
			118.677		0.433
			119.276		0.434
			119.876		0.434
			120.475		0.435
			121.075		0.435
			121.674		0.436
			122.273		0.436
			122.873		0.437
			123.472		0.438
			124.071		0.438
			124.671		0.439
			125.27		0.439
			125.87		0.44
			126.469		0.441
			127.068		0.441
			127.668		0.442
			128.267		0.443
			128.866		0.443
			129.466		0.444
			130.065		0.444
			130.665		0.445
			131.264		0.446
			131.863		0.446
			132.463		0.447
			133.062		0.448
			133.661		0.448
			134.261		0.449
			134.86		0.45
			135.46		0.45
			136.059		0.451
			136.658		0.452
			137.258		0.452
			137.857		0.453
			138.456		0.454
			139.056		0.454
			139.655		0.455
			140.255		0.456
			140.854		0.457
			141.453		0.457
			142.053		0.458
			142.652		0.459
			143.252		0.459
			143.851		0.46
			144.45		0.461
			145.05		0.461
			145.649		0.462
			146.248		0.463
			146.848		0.464
			147.447		0.464
			148.047		0.465
			148.646		0.466
			149.245		0.467
			149.845		0.467
			150.444		0.468
			151.043		0.469
			151.643		0.47
			152.242		0.47
			152.842		0.471
			153.441		0.472
			154.04		0.473
			154.64		0.474
			155.239		0.474
			155.838		0.475
			156.438		0.476
			157.037		0.477
			157.637		0.478
			158.236		0.478
			158.835		0.479
			159.435		0.48
			160.034		0.481
			160.634		0.482
			161.233		0.482
			161.832		0.483
			162.432		0.484
			163.031		0.485
			163.63		0.486
			164.23		0.487
			164.829		0.488
			165.429		0.488
			166.028		0.489
			166.627		0.49
			167.227		0.491
			167.826		0.492
			168.425		0.493
			169.025		0.494
			169.624		0.495
			170.224		0.496
			170.823		0.497
			171.422		0.497
			172.022		0.498
			172.621		0.499
			173.22		0.5
			173.82		0.501
			174.419		0.502
			175.019		0.503
			175.618		0.504
			176.217		0.505
			176.817		0.506
			177.416		0.507
			178.015		0.508
			178.615		0.509
			179.214		0.51
			179.814		0.511
			180.413		0.512
			181.012		0.513
			181.612		0.515
			182.211		0.516
			182.811		0.517
			183.41		0.518
			184.009		0.519
			184.609		0.52
			185.208		0.521
			185.807		0.523
			186.407		0.524
			187.006		0.525
			187.606		0.526
			188.205		0.528
			188.804		0.529
			189.404		0.53
			190.003		0.531
			190.602		0.533
			191.202		0.534
			191.801		0.535
			192.401		0.537
			193		0.538
			193.599		0.54
			194.199		0.541
			194.798		0.543
			195.397		0.544
			195.997		0.546
			196.596		0.548
			197.196		0.549
			197.795		0.551
			198.394		0.553
			198.994		0.554
			199.593		0.556
			200.193		0.558
			200.792		0.56
			201.391		0.562
			201.991		0.564
			202.59		0.566
			203.189		0.568
			203.789		0.57
			204.388		0.572
			204.988		0.575
			205.587		0.577
			206.186		0.579
			206.786		0.582
			207.385		0.585
			207.984		0.587
			208.584		0.59
			209.183		0.593
			209.783		0.596
			210.382		0.599
			210.981		0.602
			211.581		0.605
			212.18		0.608
			212.779		0.612
			213.379		0.615
			213.978		0.619
			214.578		0.623
			215.177		0.627
			215.776		0.631
			216.376		0.635
			216.975		0.64
			217.574		0.644
			218.174		0.649
			218.773		0.654
			219.373		0.659
			219.972		0.665
			220.571		0.67
			221.171		0.676
			221.77		0.682
			222.37		0.689
			222.969		0.695
			223.568		0.702
			224.168		0.709
			224.767		0.717
			225.366		0.725
			225.966		0.733
			226.565		0.741
			227.165		0.75
			227.764		0.76
			228.363		0.769
			228.963		0.779
			229.562		0.79
			230.161		0.801
			230.761		0.813
			231.36		0.825
			231.96		0.838
			232.559		0.851
			233.158		0.865
			233.758		0.88
			234.357		0.896
			234.956		0.913
			235.556		0.931
			236.155		0.951
			236.755		0.972
			237.354		0.995
			237.953		1.021
			238.553		1.049
			239.152		1.081
			239.752		1.115
			240.351		1.153
			240.95		1.194
			241.55		1.236
			242.149		1.278
			242.748		1.317
			243.348		1.352
			243.947		1.378
			244.547		1.392
			245.146		1.391
			245.745		1.372
			246.345		1.334
			246.944		1.276
			247.543		1.199
			248.143		1.105
			248.742		0.999
			249.342		0.885
			249.941		0.767
			250.54		0.651
			251.14		0.541
			251.739		0.44
			252.338		0.35
			252.938		0.272
			253.537		0.208
			254.137		0.155
			254.736		0.114
			255.335		0.082
			255.935		0.058
			256.534		0.041
			257.133		0.028
			257.733		0.019
			258.332		0.013
			258.932		0.009
			259.531		0.006
			260.13		0.004
			260.73		0.003
			261.329		0.002
			261.929		0.001
			262.528		0.001
			263.127		0
			263.727		0
			264.326		0
			264.925		0
			265.525		0
			266.124		0
			266.724		0
			267.323		0
			267.922		0
			268.522		0
			269.121		0
			269.72		0
			270.32		0
			270.919		0
			271.519		0
			272.118		0
			272.717		0
			273.317		0
			273.916		0
			274.515		0
			275.115		0
			275.714		0
			276.314		0
			276.913		0
			277.512		0
			278.112		0
			278.711		0
			279.311		0
			279.91		0
			280.509		0
			281.109		0
			281.708		0
			282.307		0
			282.907		0
			283.506		0
			284.106		0
			284.705		0
			285.304		0
			285.904		0
			286.503		0
			287.102		0
			287.702		0
			288.301		0
			288.901		0
			289.5		0
			290.099		0
			290.699		0
			291.298		0
			291.897		0
			292.497		0
			293.096		0
			293.696		0
			294.295		0
			294.894		0
			295.494		0
			296.093		0
			296.692		0
			297.292		0
			297.891		0
			298.491		0
			299.09		0
		END_DATA
	END_SCAN  1
END_SCAN_DATA
