BEGIN_SCAN_DATA
	FORMAT=CC-Export V1.9                  
	FILE_CREATION_DATE=15-Aug-2018 11:54:40
	LAST_MODIFIED=15-Aug-2018 11:54:40
	BEGIN_SCAN  1
		TASK_NAME=tba PDD Profiles
		PROGRAM=tbaScan
		MEAS_DATE=15-Aug-2018 11:52:08
		LINAC=VARIAN PT
		MODALITY=P
		ISOCENTER=2500.00
		INPLANE_AXIS=Inplane
		CROSSPLANE_AXIS=Crossplane
		DEPTH_AXIS=Depth
		INPLANE_AXIS_DIR=GUN_TARGET
		CROSSPLANE_AXIS_DIR=LEFT_RIGHT
		DEPTH_AXIS_DIR=UP_DOWN
		ENERGY=200.00
		NOMINAL_DMAX=305.00
		SSD=2500.00
		SCD=1000.00
		BLOCK=0
		WEDGE_ANGLE=0.00
		FIELD_INPLANE=100.00
		FIELD_CROSSPLANE=100.00
		FIELD_TYPE=RECTANGULAR
		GANTRY=270.00
		GANTRY_UPRIGHT_POSITION=0
		GANTRY_ROTATION=CW
		COLL_ANGLE=0.00
		COLL_OFFSET_INPLANE=0.00
		COLL_OFFSET_CROSSPLANE=0.00
		SCAN_DEVICE=MP3
		SCAN_DEVICE_SETUP=BARA_LEFT_RIGHT
		ELECTROMETER=TANDEM_XDR
		RANGE_FIELD=HIGH
		RANGE_REFERENCE=AUTO
		DETECTOR=PLANE_PARALLEL_CHAMBER
		DETECTOR_RADIUS=0.00
		DETECTOR_NAME=PTW 34070 Bragg-Peak
		DETECTOR_SN=0000
		DETECTOR_CALIBRATION=1100000000.00
		DETECTOR_IS_CALIBRATED=0
		DETECTOR_REFERENCE=PLANE_PARALLEL_CHAMBER
		DETECTOR_REFERENCE_RADIUS=0.00
		DETECTOR_REFERENCE_NAME=PTW 34070 Bragg-Peak
		DETECTOR_REFERENCE_SN=0000
		DETECTOR_REFERENCE_IS_CALIBRATED=0
		DETECTOR_REFERENCE_CALIBRATION=1100000000.00
		DETECTOR_HV=400.0
		DETECTOR_REFERENCE_HV=400.0
		FILTER=FF
		REF_FIELD_DEPTH=0.00
		REF_FIELD_DEFINED=ISOCENTER
		REF_FIELD_INPLANE=40.00
		REF_FIELD_CROSSPLANE=40.00
		REF_SCAN_POSITIONS=0.00;10.00;20.00;30.00;40.00;50.00;60.00;70.00;80.00;90.00;100.00;110.00;120.00;125.00;130.00;135.00;140.00;145.00;150.00;155.00;160.00;165.00;170.00;175.00;180.00;185.00;190.00;192.00;194.00;196.00;198.00;200.00;202.00;204.00;206.00;208.00;210.00;212.00;214.00;216.00;218.00;220.00;222.00;224.00;226.00;228.00;230.00;232.00;234.00;236.00;238.00;240.00;242.00;244.00;246.00;248.00;250.00;252.00;254.00;256.00;258.00;260.00;262.00;264.00;266.00;268.00;270.00;272.00;274.00;276.00;278.00;280.00;282.00;284.00;286.00;288.00;290.00;
		SCAN_CURVETYPE=PDD
		SCAN_OFFAXIS_INPLANE=0.00
		SCAN_OFFAXIS_CROSSPLANE=0.00
		SCAN_ANGLE=0.00
		SCAN_DIAGONAL=NOT_DIAGONAL
		SCAN_DIRECTION=NEGATIVE
		MEAS_MEDIUM=WATER
		MEAS_PRESET=REFERENCE_DOSEMETER
		MEAS_TIME=0.100
		MEAS_UNIT=A.U.
		SCAN_SPEEDS=50.00; 1.00;150.00; 16.00;999.00; 50.00;
		DELAY_TIMES=50.00; 0.800;150.00; 0.400;999.90; 0.000;
		PRESSURE=1013.25
		TEMPERATURE=20.00
		NORM_TEMPERATURE=20.00
		CORRECTION_FACTOR=1.0000
		EXPECTED_MAX_DOSE_RATE=8.00
		BEGIN_DATA
			0		0.344
			0.679		0.344
			1.357		0.344
			2.036		0.344
			2.715		0.345
			3.394		0.345
			4.072		0.345
			4.751		0.345
			5.43		0.346
			6.109		0.346
			6.787		0.346
			7.466		0.347
			8.145		0.348
			8.824		0.348
			9.502		0.349
			10.181		0.35
			10.86		0.35
			11.538		0.351
			12.217		0.352
			12.896		0.353
			13.575		0.354
			14.253		0.355
			14.932		0.356
			15.611		0.357
			16.29		0.358
			16.968		0.359
			17.647		0.36
			18.326		0.361
			19.005		0.362
			19.683		0.363
			20.362		0.364
			21.041		0.366
			21.72		0.367
			22.398		0.368
			23.077		0.369
			23.756		0.37
			24.434		0.371
			25.113		0.372
			25.792		0.373
			26.471		0.374
			27.149		0.375
			27.828		0.376
			28.507		0.377
			29.186		0.378
			29.864		0.378
			30.543		0.379
			31.222		0.38
			31.901		0.38
			32.579		0.381
			33.258		0.381
			33.937		0.382
			34.616		0.383
			35.294		0.383
			35.973		0.383
			36.652		0.384
			37.331		0.384
			38.009		0.385
			38.688		0.385
			39.367		0.385
			40.046		0.385
			40.724		0.386
			41.403		0.386
			42.082		0.386
			42.761		0.386
			43.439		0.387
			44.118		0.387
			44.797		0.387
			45.475		0.387
			46.154		0.387
			46.833		0.388
			47.512		0.388
			48.19		0.388
			48.869		0.388
			49.548		0.389
			50.227		0.389
			50.905		0.389
			51.584		0.389
			52.263		0.389
			52.942		0.39
			53.62		0.39
			54.299		0.39
			54.978		0.39
			55.657		0.39
			56.335		0.391
			57.014		0.391
			57.693		0.391
			58.371		0.391
			59.05		0.392
			59.729		0.392
			60.408		0.392
			61.086		0.392
			61.765		0.393
			62.444		0.393
			63.123		0.393
			63.801		0.394
			64.48		0.394
			65.159		0.394
			65.838		0.394
			66.516		0.395
			67.195		0.395
			67.874		0.395
			68.552		0.396
			69.231		0.396
			69.91		0.396
			70.589		0.396
			71.267		0.397
			71.946		0.397
			72.625		0.397
			73.304		0.398
			73.982		0.398
			74.661		0.398
			75.34		0.399
			76.019		0.399
			76.697		0.399
			77.376		0.4
			78.055		0.4
			78.733		0.4
			79.412		0.401
			80.091		0.401
			80.77		0.402
			81.449		0.402
			82.127		0.402
			82.806		0.403
			83.485		0.403
			84.163		0.403
			84.842		0.404
			85.521		0.404
			86.2		0.405
			86.878		0.405
			87.557		0.405
			88.236		0.406
			88.915		0.406
			89.593		0.407
			90.272		0.407
			90.951		0.407
			91.63		0.408
			92.308		0.408
			92.987		0.409
			93.666		0.409
			94.344		0.41
			95.023		0.41
			95.702		0.41
			96.381		0.411
			97.06		0.411
			97.738		0.412
			98.417		0.412
			99.096		0.413
			99.774		0.413
			100.453		0.414
			101.132		0.414
			101.811		0.415
			102.489		0.415
			103.168		0.416
			103.847		0.416
			104.526		0.417
			105.204		0.417
			105.883		0.418
			106.562		0.418
			107.241		0.419
			107.919		0.419
			108.598		0.42
			109.277		0.42
			109.955		0.421
			110.634		0.421
			111.313		0.422
			111.992		0.422
			112.67		0.423
			113.349		0.423
			114.028		0.424
			114.707		0.424
			115.385		0.425
			116.064		0.425
			116.743		0.426
			117.422		0.427
			118.1		0.427
			118.779		0.428
			119.458		0.428
			120.137		0.429
			120.815		0.429
			121.494		0.43
			122.173		0.431
			122.851		0.431
			123.53		0.432
			124.209		0.432
			124.888		0.433
			125.566		0.434
			126.245		0.434
			126.924		0.435
			127.603		0.435
			128.281		0.436
			128.96		0.437
			129.639		0.437
			130.318		0.438
			130.996		0.439
			131.675		0.439
			132.354		0.44
			133.033		0.44
			133.711		0.441
			134.39		0.442
			135.069		0.442
			135.747		0.443
			136.426		0.444
			137.105		0.444
			137.784		0.445
			138.462		0.446
			139.141		0.446
			139.82		0.447
			140.499		0.448
			141.177		0.449
			141.856		0.449
			142.535		0.45
			143.214		0.451
			143.892		0.451
			144.571		0.452
			145.25		0.453
			145.929		0.453
			146.607		0.454
			147.286		0.455
			147.965		0.456
			148.644		0.456
			149.322		0.457
			150.001		0.458
			150.68		0.459
			151.358		0.459
			152.037		0.46
			152.716		0.461
			153.395		0.462
			154.073		0.462
			154.752		0.463
			155.431		0.464
			156.11		0.465
			156.788		0.466
			157.467		0.466
			158.146		0.467
			158.825		0.468
			159.503		0.469
			160.182		0.47
			160.861		0.47
			161.54		0.471
			162.218		0.472
			162.897		0.473
			163.576		0.474
			164.254		0.475
			164.933		0.475
			165.612		0.476
			166.291		0.477
			166.969		0.478
			167.648		0.479
			168.327		0.48
			169.006		0.481
			169.684		0.481
			170.363		0.482
			171.042		0.483
			171.721		0.484
			172.399		0.485
			173.078		0.486
			173.757		0.487
			174.436		0.488
			175.114		0.489
			175.793		0.49
			176.472		0.491
			177.15		0.492
			177.829		0.493
			178.508		0.494
			179.187		0.495
			179.865		0.496
			180.544		0.497
			181.223		0.498
			181.902		0.499
			182.58		0.5
			183.259		0.501
			183.938		0.502
			184.617		0.503
			185.295		0.504
			185.974		0.505
			186.653		0.506
			187.332		0.507
			188.01		0.508
			188.689		0.509
			189.368		0.51
			190.046		0.512
			190.725		0.513
			191.404		0.514
			192.083		0.515
			192.761		0.516
			193.44		0.518
			194.119		0.519
			194.798		0.52
			195.476		0.521
			196.155		0.523
			196.834		0.524
			197.513		0.525
			198.191		0.527
			198.87		0.528
			199.549		0.53
			200.228		0.531
			200.906		0.533
			201.585		0.534
			202.264		0.536
			202.943		0.537
			203.621		0.539
			204.3		0.54
			204.979		0.542
			205.657		0.544
			206.336		0.546
			207.015		0.547
			207.694		0.549
			208.372		0.551
			209.051		0.553
			209.73		0.555
			210.409		0.557
			211.087		0.559
			211.766		0.561
			212.445		0.564
			213.124		0.566
			213.802		0.568
			214.481		0.571
			215.16		0.573
			215.839		0.576
			216.517		0.579
			217.196		0.581
			217.875		0.584
			218.553		0.587
			219.232		0.59
			219.911		0.593
			220.59		0.597
			221.268		0.6
			221.947		0.604
			222.626		0.607
			223.305		0.611
			223.983		0.615
			224.662		0.619
			225.341		0.624
			226.02		0.628
			226.698		0.633
			227.377		0.638
			228.056		0.643
			228.735		0.648
			229.413		0.654
			230.092		0.66
			230.771		0.666
			231.449		0.672
			232.128		0.679
			232.807		0.686
			233.486		0.693
			234.164		0.7
			234.843		0.708
			235.522		0.716
			236.201		0.725
			236.879		0.734
			237.558		0.744
			238.237		0.754
			238.916		0.764
			239.594		0.775
			240.273		0.787
			240.952		0.799
			241.631		0.811
			242.309		0.825
			242.988		0.839
			243.667		0.854
			244.345		0.869
			245.024		0.886
			245.703		0.904
			246.382		0.923
			247.06		0.944
			247.739		0.967
			248.418		0.992
			249.097		1.021
			249.775		1.053
			250.454		1.089
			251.133		1.13
			251.812		1.175
			252.49		1.223
			253.169		1.272
			253.848		1.32
			254.527		1.361
			255.205		1.392
			255.884		1.407
			256.563		1.4
			257.242		1.369
			257.92		1.311
			258.599		1.228
			259.278		1.123
			259.956		1
			260.635		0.867
			261.314		0.731
			261.993		0.599
			262.671		0.477
			263.35		0.37
			264.029		0.279
			264.708		0.205
			265.386		0.147
			266.065		0.102
			266.744		0.07
			267.423		0.047
			268.101		0.031
			268.78		0.02
			269.459		0.013
			270.138		0.008
			270.816		0.005
			271.495		0.003
			272.174		0.002
			272.852		0.001
			273.531		0.001
			274.21		0
			274.889		0
			275.567		0
			276.246		0
			276.925		0
			277.604		0
			278.282		0
			278.961		0
			279.64		0
			280.319		0
			280.997		0
			281.676		0
			282.355		0
			283.034		0
			283.712		0
			284.391		0
			285.07		0
			285.748		0
			286.427		0
			287.106		0
			287.785		0
			288.463		0
			289.142		0
			289.821		0
			290.5		0
			291.178		0
			291.857		0
			292.536		0
			293.215		0
			293.893		0
			294.572		0
			295.251		0
			295.93		0
			296.608		0
			297.287		0
			297.966		0
			298.644		0
			299.323		0
			300.002		0
			300.681		0
			301.359		0
			302.038		0
			302.717		0
			303.396		0
			304.074		0
			304.753		0
			305.432		0
			306.111		0
			306.789		0
			307.468		0
			308.147		0
			308.826		0
			309.504		0
			310.183		0
			310.862		0
			311.541		0
			312.219		0
			312.898		0
			313.577		0
			314.255		0
			314.934		0
			315.613		0
			316.292		0
			316.97		0
			317.649		0
			318.328		0
			319.007		0
			319.685		0
			320.364		0
			321.043		0
			321.722		0
			322.4		0
			323.079		0
			323.758		0
			324.437		0
			325.115		0
			325.794		0
			326.473		0
			327.151		0
			327.83		0
			328.509		0
			329.188		0
			329.866		0
			330.545		0
			331.224		0
			331.903		0
			332.581		0
			333.26		0
			333.939		0
			334.618		0
			335.296		0
			335.975		0
			336.654		0
			337.333		0
			338.011		0
			338.69		0
		END_DATA
	END_SCAN  1
END_SCAN_DATA
