BEGIN_SCAN_DATA
	FORMAT=CC-Export V1.9                  
	FILE_CREATION_DATE=15-Aug-2018 11:54:40
	LAST_MODIFIED=15-Aug-2018 11:54:40
	BEGIN_SCAN  1
		TASK_NAME=tba PDD Profiles
		PROGRAM=tbaScan
		MEAS_DATE=15-Aug-2018 11:52:08
		LINAC=VARIAN PT
		MODALITY=P
		ISOCENTER=2500.00
		INPLANE_AXIS=Inplane
		CROSSPLANE_AXIS=Crossplane
		DEPTH_AXIS=Depth
		INPLANE_AXIS_DIR=GUN_TARGET
		CROSSPLANE_AXIS_DIR=LEFT_RIGHT
		DEPTH_AXIS_DIR=UP_DOWN
		ENERGY=205.00
		NOMINAL_DMAX=305.00
		SSD=2500.00
		SCD=1000.00
		BLOCK=0
		WEDGE_ANGLE=0.00
		FIELD_INPLANE=100.00
		FIELD_CROSSPLANE=100.00
		FIELD_TYPE=RECTANGULAR
		GANTRY=270.00
		GANTRY_UPRIGHT_POSITION=0
		GANTRY_ROTATION=CW
		COLL_ANGLE=0.00
		COLL_OFFSET_INPLANE=0.00
		COLL_OFFSET_CROSSPLANE=0.00
		SCAN_DEVICE=MP3
		SCAN_DEVICE_SETUP=BARA_LEFT_RIGHT
		ELECTROMETER=TANDEM_XDR
		RANGE_FIELD=HIGH
		RANGE_REFERENCE=AUTO
		DETECTOR=PLANE_PARALLEL_CHAMBER
		DETECTOR_RADIUS=0.00
		DETECTOR_NAME=PTW 34070 Bragg-Peak
		DETECTOR_SN=0000
		DETECTOR_CALIBRATION=1100000000.00
		DETECTOR_IS_CALIBRATED=0
		DETECTOR_REFERENCE=PLANE_PARALLEL_CHAMBER
		DETECTOR_REFERENCE_RADIUS=0.00
		DETECTOR_REFERENCE_NAME=PTW 34070 Bragg-Peak
		DETECTOR_REFERENCE_SN=0000
		DETECTOR_REFERENCE_IS_CALIBRATED=0
		DETECTOR_REFERENCE_CALIBRATION=1100000000.00
		DETECTOR_HV=400.0
		DETECTOR_REFERENCE_HV=400.0
		FILTER=FF
		REF_FIELD_DEPTH=0.00
		REF_FIELD_DEFINED=ISOCENTER
		REF_FIELD_INPLANE=40.00
		REF_FIELD_CROSSPLANE=40.00
		REF_SCAN_POSITIONS=0.00;10.00;20.00;30.00;40.00;50.00;60.00;70.00;80.00;90.00;100.00;110.00;120.00;125.00;130.00;135.00;140.00;145.00;150.00;155.00;160.00;165.00;170.00;175.00;180.00;185.00;190.00;192.00;194.00;196.00;198.00;200.00;202.00;204.00;206.00;208.00;210.00;212.00;214.00;216.00;218.00;220.00;222.00;224.00;226.00;228.00;230.00;232.00;234.00;236.00;238.00;240.00;242.00;244.00;246.00;248.00;250.00;252.00;254.00;256.00;258.00;260.00;262.00;264.00;266.00;268.00;270.00;272.00;274.00;276.00;278.00;280.00;282.00;284.00;286.00;288.00;290.00;
		SCAN_CURVETYPE=PDD
		SCAN_OFFAXIS_INPLANE=0.00
		SCAN_OFFAXIS_CROSSPLANE=0.00
		SCAN_ANGLE=0.00
		SCAN_DIAGONAL=NOT_DIAGONAL
		SCAN_DIRECTION=NEGATIVE
		MEAS_MEDIUM=WATER
		MEAS_PRESET=REFERENCE_DOSEMETER
		MEAS_TIME=0.100
		MEAS_UNIT=A.U.
		SCAN_SPEEDS=50.00; 1.00;150.00; 16.00;999.00; 50.00;
		DELAY_TIMES=50.00; 0.800;150.00; 0.400;999.90; 0.000;
		PRESSURE=1013.25
		TEMPERATURE=20.00
		NORM_TEMPERATURE=20.00
		CORRECTION_FACTOR=1.0000
		EXPECTED_MAX_DOSE_RATE=8.00
		BEGIN_DATA
			0		0.344
			0.679		0.344
			1.357		0.344
			2.036		0.344
			2.715		0.345
			3.394		0.345
			4.072		0.345
			4.751		0.345
			5.43		0.346
			6.109		0.346
			6.787		0.346
			7.466		0.347
			8.145		0.347
			8.824		0.348
			9.502		0.349
			10.181		0.349
			10.86		0.35
			11.538		0.351
			12.217		0.352
			12.896		0.353
			13.575		0.353
			14.253		0.354
			14.932		0.355
			15.611		0.356
			16.29		0.357
			16.968		0.358
			17.647		0.359
			18.326		0.36
			19.005		0.362
			19.683		0.363
			20.362		0.364
			21.041		0.365
			21.72		0.366
			22.398		0.367
			23.077		0.368
			23.756		0.369
			24.434		0.37
			25.113		0.371
			25.792		0.372
			26.471		0.373
			27.149		0.374
			27.828		0.375
			28.507		0.376
			29.186		0.377
			29.864		0.378
			30.543		0.378
			31.222		0.379
			31.901		0.38
			32.579		0.38
			33.258		0.381
			33.937		0.381
			34.616		0.382
			35.294		0.382
			35.973		0.383
			36.652		0.383
			37.331		0.384
			38.009		0.384
			38.688		0.384
			39.367		0.385
			40.046		0.385
			40.724		0.385
			41.403		0.385
			42.082		0.386
			42.761		0.386
			43.439		0.386
			44.118		0.386
			44.797		0.387
			45.475		0.387
			46.154		0.387
			46.833		0.387
			47.512		0.387
			48.19		0.387
			48.869		0.388
			49.548		0.388
			50.227		0.388
			50.905		0.388
			51.584		0.388
			52.263		0.389
			52.942		0.389
			53.62		0.389
			54.299		0.389
			54.978		0.389
			55.657		0.39
			56.335		0.39
			57.014		0.39
			57.693		0.39
			58.371		0.39
			59.05		0.391
			59.729		0.391
			60.408		0.391
			61.086		0.391
			61.765		0.392
			62.444		0.392
			63.123		0.392
			63.801		0.392
			64.48		0.393
			65.159		0.393
			65.838		0.393
			66.516		0.393
			67.195		0.394
			67.874		0.394
			68.552		0.394
			69.231		0.394
			69.91		0.395
			70.589		0.395
			71.267		0.395
			71.946		0.395
			72.625		0.396
			73.304		0.396
			73.982		0.396
			74.661		0.397
			75.34		0.397
			76.019		0.397
			76.697		0.397
			77.376		0.398
			78.055		0.398
			78.733		0.398
			79.412		0.399
			80.091		0.399
			80.77		0.399
			81.449		0.4
			82.127		0.4
			82.806		0.4
			83.485		0.401
			84.163		0.401
			84.842		0.401
			85.521		0.402
			86.2		0.402
			86.878		0.402
			87.557		0.403
			88.236		0.403
			88.915		0.403
			89.593		0.404
			90.272		0.404
			90.951		0.404
			91.63		0.405
			92.308		0.405
			92.987		0.406
			93.666		0.406
			94.344		0.406
			95.023		0.407
			95.702		0.407
			96.381		0.407
			97.06		0.408
			97.738		0.408
			98.417		0.409
			99.096		0.409
			99.774		0.409
			100.453		0.41
			101.132		0.41
			101.811		0.411
			102.489		0.411
			103.168		0.412
			103.847		0.412
			104.526		0.412
			105.204		0.413
			105.883		0.413
			106.562		0.414
			107.241		0.414
			107.919		0.415
			108.598		0.415
			109.277		0.415
			109.955		0.416
			110.634		0.416
			111.313		0.417
			111.992		0.417
			112.67		0.418
			113.349		0.418
			114.028		0.419
			114.707		0.419
			115.385		0.42
			116.064		0.42
			116.743		0.421
			117.422		0.421
			118.1		0.421
			118.779		0.422
			119.458		0.422
			120.137		0.423
			120.815		0.423
			121.494		0.424
			122.173		0.424
			122.851		0.425
			123.53		0.425
			124.209		0.426
			124.888		0.427
			125.566		0.427
			126.245		0.428
			126.924		0.428
			127.603		0.429
			128.281		0.429
			128.96		0.43
			129.639		0.43
			130.318		0.431
			130.996		0.431
			131.675		0.432
			132.354		0.432
			133.033		0.433
			133.711		0.434
			134.39		0.434
			135.069		0.435
			135.747		0.435
			136.426		0.436
			137.105		0.436
			137.784		0.437
			138.462		0.438
			139.141		0.438
			139.82		0.439
			140.499		0.439
			141.177		0.44
			141.856		0.441
			142.535		0.441
			143.214		0.442
			143.892		0.442
			144.571		0.443
			145.25		0.444
			145.929		0.444
			146.607		0.445
			147.286		0.446
			147.965		0.446
			148.644		0.447
			149.322		0.447
			150.001		0.448
			150.68		0.449
			151.358		0.449
			152.037		0.45
			152.716		0.451
			153.395		0.451
			154.073		0.452
			154.752		0.453
			155.431		0.453
			156.11		0.454
			156.788		0.455
			157.467		0.455
			158.146		0.456
			158.825		0.457
			159.503		0.458
			160.182		0.458
			160.861		0.459
			161.54		0.46
			162.218		0.46
			162.897		0.461
			163.576		0.462
			164.254		0.463
			164.933		0.463
			165.612		0.464
			166.291		0.465
			166.969		0.466
			167.648		0.466
			168.327		0.467
			169.006		0.468
			169.684		0.469
			170.363		0.469
			171.042		0.47
			171.721		0.471
			172.399		0.472
			173.078		0.472
			173.757		0.473
			174.436		0.474
			175.114		0.475
			175.793		0.476
			176.472		0.476
			177.15		0.477
			177.829		0.478
			178.508		0.479
			179.187		0.48
			179.865		0.481
			180.544		0.481
			181.223		0.482
			181.902		0.483
			182.58		0.484
			183.259		0.485
			183.938		0.486
			184.617		0.487
			185.295		0.488
			185.974		0.488
			186.653		0.489
			187.332		0.49
			188.01		0.491
			188.689		0.492
			189.368		0.493
			190.046		0.494
			190.725		0.495
			191.404		0.496
			192.083		0.497
			192.761		0.498
			193.44		0.499
			194.119		0.5
			194.798		0.501
			195.476		0.502
			196.155		0.503
			196.834		0.504
			197.513		0.505
			198.191		0.506
			198.87		0.507
			199.549		0.508
			200.228		0.509
			200.906		0.511
			201.585		0.512
			202.264		0.513
			202.943		0.514
			203.621		0.515
			204.3		0.517
			204.979		0.518
			205.657		0.519
			206.336		0.52
			207.015		0.522
			207.694		0.523
			208.372		0.524
			209.051		0.526
			209.73		0.527
			210.409		0.528
			211.087		0.53
			211.766		0.531
			212.445		0.533
			213.124		0.534
			213.802		0.536
			214.481		0.537
			215.16		0.539
			215.839		0.541
			216.517		0.543
			217.196		0.544
			217.875		0.546
			218.553		0.548
			219.232		0.55
			219.911		0.552
			220.59		0.554
			221.268		0.556
			221.947		0.558
			222.626		0.56
			223.305		0.562
			223.983		0.565
			224.662		0.567
			225.341		0.569
			226.02		0.572
			226.698		0.575
			227.377		0.577
			228.056		0.58
			228.735		0.583
			229.413		0.586
			230.092		0.589
			230.771		0.592
			231.449		0.596
			232.128		0.599
			232.807		0.603
			233.486		0.606
			234.164		0.61
			234.843		0.614
			235.522		0.618
			236.201		0.623
			236.879		0.627
			237.558		0.632
			238.237		0.637
			238.916		0.642
			239.594		0.647
			240.273		0.652
			240.952		0.658
			241.631		0.664
			242.309		0.67
			242.988		0.677
			243.667		0.684
			244.345		0.691
			245.024		0.698
			245.703		0.706
			246.382		0.714
			247.06		0.722
			247.739		0.731
			248.418		0.741
			249.097		0.75
			249.775		0.76
			250.454		0.771
			251.133		0.782
			251.812		0.794
			252.49		0.806
			253.169		0.819
			253.848		0.832
			254.527		0.847
			255.205		0.862
			255.884		0.878
			256.563		0.895
			257.242		0.913
			257.92		0.932
			258.599		0.954
			259.278		0.978
			259.956		1.004
			260.635		1.034
			261.314		1.068
			261.993		1.107
			262.671		1.15
			263.35		1.196
			264.029		1.245
			264.708		1.294
			265.386		1.339
			266.065		1.376
			266.744		1.399
			267.423		1.404
			268.101		1.385
			268.78		1.341
			269.459		1.271
			270.138		1.177
			270.816		1.063
			271.495		0.936
			272.174		0.801
			272.852		0.668
			273.531		0.541
			274.21		0.426
			274.889		0.327
			275.567		0.244
			276.246		0.178
			276.925		0.126
			277.604		0.088
			278.282		0.06
			278.961		0.04
			279.64		0.026
			280.319		0.017
			280.997		0.011
			281.676		0.007
			282.355		0.004
			283.034		0.003
			283.712		0.002
			284.391		0.001
			285.07		0.001
			285.748		0
			286.427		0
			287.106		0
			287.785		0
			288.463		0
			289.142		0
			289.821		0
			290.5		0
			291.178		0
			291.857		0
			292.536		0
			293.215		0
			293.893		0
			294.572		0
			295.251		0
			295.93		0
			296.608		0
			297.287		0
			297.966		0
			298.644		0
			299.323		0
			300.002		0
			300.681		0
			301.359		0
			302.038		0
			302.717		0
			303.396		0
			304.074		0
			304.753		0
			305.432		0
			306.111		0
			306.789		0
			307.468		0
			308.147		0
			308.826		0
			309.504		0
			310.183		0
			310.862		0
			311.541		0
			312.219		0
			312.898		0
			313.577		0
			314.255		0
			314.934		0
			315.613		0
			316.292		0
			316.97		0
			317.649		0
			318.328		0
			319.007		0
			319.685		0
			320.364		0
			321.043		0
			321.722		0
			322.4		0
			323.079		0
			323.758		0
			324.437		0
			325.115		0
			325.794		0
			326.473		0
			327.151		0
			327.83		0
			328.509		0
			329.188		0
			329.866		0
			330.545		0
			331.224		0
			331.903		0
			332.581		0
			333.26		0
			333.939		0
			334.618		0
			335.296		0
			335.975		0
			336.654		0
			337.333		0
			338.011		0
			338.69		0
		END_DATA
	END_SCAN  1
END_SCAN_DATA
