BEGIN_SCAN_DATA
	FORMAT=CC-Export V1.9                  
	FILE_CREATION_DATE=15-Aug-2018 11:54:40
	LAST_MODIFIED=15-Aug-2018 11:54:40
	BEGIN_SCAN  1
		TASK_NAME=tba PDD Profiles
		PROGRAM=tbaScan
		MEAS_DATE=15-Aug-2018 11:52:08
		LINAC=VARIAN PT
		MODALITY=P
		ISOCENTER=2500.00
		INPLANE_AXIS=Inplane
		CROSSPLANE_AXIS=Crossplane
		DEPTH_AXIS=Depth
		INPLANE_AXIS_DIR=GUN_TARGET
		CROSSPLANE_AXIS_DIR=LEFT_RIGHT
		DEPTH_AXIS_DIR=UP_DOWN
		ENERGY=210.00
		NOMINAL_DMAX=305.00
		SSD=2500.00
		SCD=1000.00
		BLOCK=0
		WEDGE_ANGLE=0.00
		FIELD_INPLANE=100.00
		FIELD_CROSSPLANE=100.00
		FIELD_TYPE=RECTANGULAR
		GANTRY=270.00
		GANTRY_UPRIGHT_POSITION=0
		GANTRY_ROTATION=CW
		COLL_ANGLE=0.00
		COLL_OFFSET_INPLANE=0.00
		COLL_OFFSET_CROSSPLANE=0.00
		SCAN_DEVICE=MP3
		SCAN_DEVICE_SETUP=BARA_LEFT_RIGHT
		ELECTROMETER=TANDEM_XDR
		RANGE_FIELD=HIGH
		RANGE_REFERENCE=AUTO
		DETECTOR=PLANE_PARALLEL_CHAMBER
		DETECTOR_RADIUS=0.00
		DETECTOR_NAME=PTW 34070 Bragg-Peak
		DETECTOR_SN=0000
		DETECTOR_CALIBRATION=1100000000.00
		DETECTOR_IS_CALIBRATED=0
		DETECTOR_REFERENCE=PLANE_PARALLEL_CHAMBER
		DETECTOR_REFERENCE_RADIUS=0.00
		DETECTOR_REFERENCE_NAME=PTW 34070 Bragg-Peak
		DETECTOR_REFERENCE_SN=0000
		DETECTOR_REFERENCE_IS_CALIBRATED=0
		DETECTOR_REFERENCE_CALIBRATION=1100000000.00
		DETECTOR_HV=400.0
		DETECTOR_REFERENCE_HV=400.0
		FILTER=FF
		REF_FIELD_DEPTH=0.00
		REF_FIELD_DEFINED=ISOCENTER
		REF_FIELD_INPLANE=40.00
		REF_FIELD_CROSSPLANE=40.00
		REF_SCAN_POSITIONS=0.00;10.00;20.00;30.00;40.00;50.00;60.00;70.00;80.00;90.00;100.00;110.00;120.00;125.00;130.00;135.00;140.00;145.00;150.00;155.00;160.00;165.00;170.00;175.00;180.00;185.00;190.00;192.00;194.00;196.00;198.00;200.00;202.00;204.00;206.00;208.00;210.00;212.00;214.00;216.00;218.00;220.00;222.00;224.00;226.00;228.00;230.00;232.00;234.00;236.00;238.00;240.00;242.00;244.00;246.00;248.00;250.00;252.00;254.00;256.00;258.00;260.00;262.00;264.00;266.00;268.00;270.00;272.00;274.00;276.00;278.00;280.00;282.00;284.00;286.00;288.00;290.00;
		SCAN_CURVETYPE=PDD
		SCAN_OFFAXIS_INPLANE=0.00
		SCAN_OFFAXIS_CROSSPLANE=0.00
		SCAN_ANGLE=0.00
		SCAN_DIAGONAL=NOT_DIAGONAL
		SCAN_DIRECTION=NEGATIVE
		MEAS_MEDIUM=WATER
		MEAS_PRESET=REFERENCE_DOSEMETER
		MEAS_TIME=0.100
		MEAS_UNIT=A.U.
		SCAN_SPEEDS=50.00; 1.00;150.00; 16.00;999.00; 50.00;
		DELAY_TIMES=50.00; 0.800;150.00; 0.400;999.90; 0.000;
		PRESSURE=1013.25
		TEMPERATURE=20.00
		NORM_TEMPERATURE=20.00
		CORRECTION_FACTOR=1.0000
		EXPECTED_MAX_DOSE_RATE=8.00
		BEGIN_DATA
			0		0.345
			0.723		0.345
			1.446		0.345
			2.168		0.345
			2.891		0.345
			3.614		0.345
			4.337		0.345
			5.06		0.346
			5.783		0.346
			6.505		0.347
			7.228		0.347
			7.951		0.348
			8.674		0.348
			9.397		0.349
			10.12		0.349
			10.842		0.35
			11.565		0.351
			12.288		0.352
			13.011		0.353
			13.734		0.354
			14.457		0.355
			15.179		0.355
			15.902		0.357
			16.625		0.358
			17.348		0.359
			18.071		0.36
			18.794		0.361
			19.516		0.362
			20.239		0.363
			20.962		0.364
			21.685		0.365
			22.408		0.367
			23.13		0.368
			23.853		0.369
			24.576		0.37
			25.299		0.371
			26.022		0.372
			26.744		0.373
			27.467		0.374
			28.19		0.375
			28.913		0.376
			29.636		0.377
			30.359		0.378
			31.081		0.378
			31.804		0.379
			32.527		0.38
			33.25		0.38
			33.973		0.381
			34.696		0.382
			35.418		0.382
			36.141		0.383
			36.864		0.383
			37.587		0.383
			38.31		0.384
			39.033		0.384
			39.755		0.384
			40.478		0.385
			41.201		0.385
			41.924		0.385
			42.647		0.386
			43.369		0.386
			44.092		0.386
			44.815		0.386
			45.538		0.386
			46.261		0.387
			46.984		0.387
			47.707		0.387
			48.429		0.387
			49.152		0.387
			49.875		0.388
			50.598		0.388
			51.321		0.388
			52.043		0.388
			52.766		0.388
			53.489		0.389
			54.212		0.389
			54.935		0.389
			55.658		0.389
			56.38		0.389
			57.103		0.389
			57.826		0.39
			58.549		0.39
			59.272		0.39
			59.994		0.39
			60.717		0.391
			61.44		0.391
			62.163		0.391
			62.886		0.391
			63.609		0.391
			64.331		0.392
			65.054		0.392
			65.777		0.392
			66.5		0.392
			67.223		0.393
			67.946		0.393
			68.668		0.393
			69.391		0.393
			70.114		0.394
			70.837		0.394
			71.56		0.394
			72.283		0.394
			73.005		0.395
			73.728		0.395
			74.451		0.395
			75.174		0.395
			75.897		0.396
			76.619		0.396
			77.342		0.396
			78.065		0.397
			78.788		0.397
			79.511		0.397
			80.234		0.397
			80.956		0.398
			81.679		0.398
			82.402		0.398
			83.125		0.399
			83.848		0.399
			84.571		0.399
			85.293		0.4
			86.016		0.4
			86.739		0.4
			87.462		0.401
			88.185		0.401
			88.908		0.401
			89.63		0.402
			90.353		0.402
			91.076		0.402
			91.799		0.403
			92.522		0.403
			93.244		0.403
			93.967		0.404
			94.69		0.404
			95.413		0.404
			96.136		0.405
			96.859		0.405
			97.581		0.405
			98.304		0.406
			99.027		0.406
			99.75		0.407
			100.473		0.407
			101.196		0.407
			101.918		0.408
			102.641		0.408
			103.364		0.408
			104.087		0.409
			104.81		0.409
			105.533		0.41
			106.255		0.41
			106.978		0.41
			107.701		0.411
			108.424		0.411
			109.147		0.412
			109.869		0.412
			110.592		0.412
			111.315		0.413
			112.038		0.413
			112.761		0.414
			113.484		0.414
			114.206		0.415
			114.929		0.415
			115.652		0.415
			116.375		0.416
			117.098		0.416
			117.821		0.417
			118.543		0.417
			119.266		0.418
			119.989		0.418
			120.712		0.419
			121.435		0.419
			122.158		0.42
			122.88		0.42
			123.603		0.421
			124.326		0.421
			125.049		0.421
			125.772		0.422
			126.494		0.422
			127.217		0.423
			127.94		0.423
			128.663		0.424
			129.386		0.424
			130.109		0.425
			130.831		0.425
			131.554		0.426
			132.277		0.426
			133		0.427
			133.723		0.427
			134.446		0.428
			135.168		0.429
			135.891		0.429
			136.614		0.43
			137.337		0.43
			138.06		0.431
			138.783		0.431
			139.505		0.432
			140.228		0.432
			140.951		0.433
			141.674		0.433
			142.397		0.434
			143.119		0.435
			143.842		0.435
			144.565		0.436
			145.288		0.436
			146.011		0.437
			146.734		0.437
			147.456		0.438
			148.179		0.439
			148.902		0.439
			149.625		0.44
			150.348		0.44
			151.071		0.441
			151.793		0.442
			152.516		0.442
			153.239		0.443
			153.962		0.443
			154.685		0.444
			155.408		0.445
			156.13		0.445
			156.853		0.446
			157.576		0.447
			158.299		0.447
			159.022		0.448
			159.744		0.449
			160.467		0.449
			161.19		0.45
			161.913		0.451
			162.636		0.451
			163.359		0.452
			164.081		0.453
			164.804		0.453
			165.527		0.454
			166.25		0.455
			166.973		0.455
			167.696		0.456
			168.418		0.457
			169.141		0.457
			169.864		0.458
			170.587		0.459
			171.31		0.46
			172.033		0.46
			172.755		0.461
			173.478		0.462
			174.201		0.463
			174.924		0.463
			175.647		0.464
			176.369		0.465
			177.092		0.466
			177.815		0.466
			178.538		0.467
			179.261		0.468
			179.984		0.469
			180.706		0.469
			181.429		0.47
			182.152		0.471
			182.875		0.472
			183.598		0.473
			184.321		0.473
			185.043		0.474
			185.766		0.475
			186.489		0.476
			187.212		0.477
			187.935		0.478
			188.657		0.478
			189.38		0.479
			190.103		0.48
			190.826		0.481
			191.549		0.482
			192.272		0.483
			192.994		0.484
			193.717		0.484
			194.44		0.485
			195.163		0.486
			195.886		0.487
			196.609		0.488
			197.331		0.489
			198.054		0.49
			198.777		0.491
			199.5		0.492
			200.223		0.493
			200.946		0.494
			201.668		0.495
			202.391		0.496
			203.114		0.497
			203.837		0.498
			204.56		0.499
			205.282		0.5
			206.005		0.501
			206.728		0.502
			207.451		0.503
			208.174		0.504
			208.897		0.505
			209.619		0.507
			210.342		0.508
			211.065		0.509
			211.788		0.51
			212.511		0.511
			213.234		0.512
			213.956		0.514
			214.679		0.515
			215.402		0.516
			216.125		0.518
			216.848		0.519
			217.571		0.52
			218.293		0.522
			219.016		0.523
			219.739		0.524
			220.462		0.526
			221.185		0.527
			221.907		0.529
			222.63		0.53
			223.353		0.532
			224.076		0.534
			224.799		0.535
			225.522		0.537
			226.244		0.539
			226.967		0.541
			227.69		0.542
			228.413		0.544
			229.136		0.546
			229.859		0.548
			230.581		0.55
			231.304		0.552
			232.027		0.555
			232.75		0.557
			233.473		0.559
			234.196		0.561
			234.918		0.564
			235.641		0.566
			236.364		0.569
			237.087		0.572
			237.81		0.575
			238.532		0.578
			239.255		0.581
			239.978		0.584
			240.701		0.587
			241.424		0.59
			242.147		0.594
			242.869		0.597
			243.592		0.601
			244.315		0.605
			245.038		0.609
			245.761		0.613
			246.484		0.618
			247.206		0.622
			247.929		0.627
			248.652		0.632
			249.375		0.637
			250.098		0.643
			250.821		0.648
			251.543		0.654
			252.266		0.66
			252.989		0.667
			253.712		0.673
			254.435		0.68
			255.157		0.688
			255.88		0.695
			256.603		0.704
			257.326		0.712
			258.049		0.721
			258.772		0.73
			259.494		0.74
			260.217		0.75
			260.94		0.76
			261.663		0.771
			262.386		0.783
			263.109		0.795
			263.831		0.808
			264.554		0.822
			265.277		0.836
			266		0.851
			266.723		0.867
			267.445		0.884
			268.168		0.902
			268.891		0.922
			269.614		0.944
			270.337		0.968
			271.06		0.995
			271.782		1.025
			272.505		1.061
			273.228		1.101
			273.951		1.146
			274.674		1.195
			275.397		1.247
			276.119		1.299
			276.842		1.345
			277.565		1.381
			278.288		1.4
			279.011		1.396
			279.734		1.365
			280.456		1.306
			281.179		1.218
			281.902		1.106
			282.625		0.976
			283.348		0.836
			284.07		0.695
			284.793		0.56
			285.516		0.437
			286.239		0.331
			286.962		0.244
			287.685		0.174
			288.407		0.121
			289.13		0.082
			289.853		0.055
			290.576		0.035
			291.299		0.023
			292.022		0.014
			292.744		0.009
			293.467		0.005
			294.19		0.003
			294.913		0.002
			295.636		0.001
			296.359		0.001
			297.081		0
			297.804		0
			298.527		0
			299.25		0
			299.973		0
			300.695		0
			301.418		0
			302.141		0
			302.864		0
			303.587		0
			304.31		0
			305.032		0
			305.755		0
			306.478		0
			307.201		0
			307.924		0
			308.647		0
			309.369		0
			310.092		0
			310.815		0
			311.538		0
			312.261		0
			312.984		0
			313.706		0
			314.429		0
			315.152		0
			315.875		0
			316.598		0
			317.32		0
			318.043		0
			318.766		0
			319.489		0
			320.212		0
			320.935		0
			321.657		0
			322.38		0
			323.103		0
			323.826		0
			324.549		0
			325.272		0
			325.994		0
			326.717		0
			327.44		0
			328.163		0
			328.886		0
			329.608		0
			330.331		0
			331.054		0
			331.777		0
			332.5		0
			333.223		0
			333.945		0
			334.668		0
			335.391		0
			336.114		0
			336.837		0
			337.56		0
			338.282		0
			339.005		0
			339.728		0
			340.451		0
			341.174		0
			341.897		0
			342.619		0
			343.342		0
			344.065		0
			344.788		0
			345.511		0
			346.233		0
			346.956		0
			347.679		0
			348.402		0
			349.125		0
			349.848		0
			350.57		0
			351.293		0
			352.016		0
			352.739		0
			353.462		0
			354.185		0
			354.907		0
			355.63		0
			356.353		0
			357.076		0
			357.799		0
			358.522		0
			359.244		0
			359.967		0
			360.69		0
		END_DATA
	END_SCAN  1
END_SCAN_DATA
