BEGIN_SCAN_DATA
	FORMAT=CC-Export V1.9                  
	FILE_CREATION_DATE=15-Aug-2018 11:54:40
	LAST_MODIFIED=15-Aug-2018 11:54:40
	BEGIN_SCAN  1
		TASK_NAME=tba PDD Profiles
		PROGRAM=tbaScan
		MEAS_DATE=15-Aug-2018 11:52:08
		LINAC=VARIAN PT
		MODALITY=P
		ISOCENTER=2500.00
		INPLANE_AXIS=Inplane
		CROSSPLANE_AXIS=Crossplane
		DEPTH_AXIS=Depth
		INPLANE_AXIS_DIR=GUN_TARGET
		CROSSPLANE_AXIS_DIR=LEFT_RIGHT
		DEPTH_AXIS_DIR=UP_DOWN
		ENERGY=215.00
		NOMINAL_DMAX=305.00
		SSD=2500.00
		SCD=1000.00
		BLOCK=0
		WEDGE_ANGLE=0.00
		FIELD_INPLANE=100.00
		FIELD_CROSSPLANE=100.00
		FIELD_TYPE=RECTANGULAR
		GANTRY=270.00
		GANTRY_UPRIGHT_POSITION=0
		GANTRY_ROTATION=CW
		COLL_ANGLE=0.00
		COLL_OFFSET_INPLANE=0.00
		COLL_OFFSET_CROSSPLANE=0.00
		SCAN_DEVICE=MP3
		SCAN_DEVICE_SETUP=BARA_LEFT_RIGHT
		ELECTROMETER=TANDEM_XDR
		RANGE_FIELD=HIGH
		RANGE_REFERENCE=AUTO
		DETECTOR=PLANE_PARALLEL_CHAMBER
		DETECTOR_RADIUS=0.00
		DETECTOR_NAME=PTW 34070 Bragg-Peak
		DETECTOR_SN=0000
		DETECTOR_CALIBRATION=1100000000.00
		DETECTOR_IS_CALIBRATED=0
		DETECTOR_REFERENCE=PLANE_PARALLEL_CHAMBER
		DETECTOR_REFERENCE_RADIUS=0.00
		DETECTOR_REFERENCE_NAME=PTW 34070 Bragg-Peak
		DETECTOR_REFERENCE_SN=0000
		DETECTOR_REFERENCE_IS_CALIBRATED=0
		DETECTOR_REFERENCE_CALIBRATION=1100000000.00
		DETECTOR_HV=400.0
		DETECTOR_REFERENCE_HV=400.0
		FILTER=FF
		REF_FIELD_DEPTH=0.00
		REF_FIELD_DEFINED=ISOCENTER
		REF_FIELD_INPLANE=40.00
		REF_FIELD_CROSSPLANE=40.00
		REF_SCAN_POSITIONS=0.00;10.00;20.00;30.00;40.00;50.00;60.00;70.00;80.00;90.00;100.00;110.00;120.00;125.00;130.00;135.00;140.00;145.00;150.00;155.00;160.00;165.00;170.00;175.00;180.00;185.00;190.00;192.00;194.00;196.00;198.00;200.00;202.00;204.00;206.00;208.00;210.00;212.00;214.00;216.00;218.00;220.00;222.00;224.00;226.00;228.00;230.00;232.00;234.00;236.00;238.00;240.00;242.00;244.00;246.00;248.00;250.00;252.00;254.00;256.00;258.00;260.00;262.00;264.00;266.00;268.00;270.00;272.00;274.00;276.00;278.00;280.00;282.00;284.00;286.00;288.00;290.00;
		SCAN_CURVETYPE=PDD
		SCAN_OFFAXIS_INPLANE=0.00
		SCAN_OFFAXIS_CROSSPLANE=0.00
		SCAN_ANGLE=0.00
		SCAN_DIAGONAL=NOT_DIAGONAL
		SCAN_DIRECTION=NEGATIVE
		MEAS_MEDIUM=WATER
		MEAS_PRESET=REFERENCE_DOSEMETER
		MEAS_TIME=0.100
		MEAS_UNIT=A.U.
		SCAN_SPEEDS=50.00; 1.00;150.00; 16.00;999.00; 50.00;
		DELAY_TIMES=50.00; 0.800;150.00; 0.400;999.90; 0.000;
		PRESSURE=1013.25
		TEMPERATURE=20.00
		NORM_TEMPERATURE=20.00
		CORRECTION_FACTOR=1.0000
		EXPECTED_MAX_DOSE_RATE=8.00
		BEGIN_DATA
			0		0.346
			0.723		0.346
			1.446		0.346
			2.168		0.346
			2.891		0.346
			3.614		0.346
			4.337		0.346
			5.06		0.347
			5.783		0.347
			6.505		0.347
			7.228		0.348
			7.951		0.348
			8.674		0.349
			9.397		0.349
			10.12		0.35
			10.842		0.351
			11.565		0.352
			12.288		0.352
			13.011		0.353
			13.734		0.354
			14.457		0.355
			15.179		0.356
			15.902		0.357
			16.625		0.358
			17.348		0.359
			18.071		0.36
			18.794		0.361
			19.516		0.362
			20.239		0.363
			20.962		0.365
			21.685		0.366
			22.408		0.367
			23.13		0.368
			23.853		0.369
			24.576		0.37
			25.299		0.371
			26.022		0.372
			26.744		0.373
			27.467		0.374
			28.19		0.375
			28.913		0.376
			29.636		0.377
			30.359		0.378
			31.081		0.379
			31.804		0.379
			32.527		0.38
			33.25		0.381
			33.973		0.381
			34.696		0.382
			35.418		0.382
			36.141		0.383
			36.864		0.383
			37.587		0.384
			38.31		0.384
			39.033		0.385
			39.755		0.385
			40.478		0.385
			41.201		0.385
			41.924		0.386
			42.647		0.386
			43.369		0.386
			44.092		0.386
			44.815		0.387
			45.538		0.387
			46.261		0.387
			46.984		0.387
			47.707		0.387
			48.429		0.388
			49.152		0.388
			49.875		0.388
			50.598		0.388
			51.321		0.388
			52.043		0.388
			52.766		0.389
			53.489		0.389
			54.212		0.389
			54.935		0.389
			55.658		0.389
			56.38		0.39
			57.103		0.39
			57.826		0.39
			58.549		0.39
			59.272		0.39
			59.994		0.39
			60.717		0.391
			61.44		0.391
			62.163		0.391
			62.886		0.391
			63.609		0.391
			64.331		0.392
			65.054		0.392
			65.777		0.392
			66.5		0.392
			67.223		0.392
			67.946		0.393
			68.668		0.393
			69.391		0.393
			70.114		0.393
			70.837		0.394
			71.56		0.394
			72.283		0.394
			73.005		0.394
			73.728		0.395
			74.451		0.395
			75.174		0.395
			75.897		0.395
			76.619		0.396
			77.342		0.396
			78.065		0.396
			78.788		0.396
			79.511		0.397
			80.234		0.397
			80.956		0.397
			81.679		0.397
			82.402		0.398
			83.125		0.398
			83.848		0.398
			84.571		0.398
			85.293		0.399
			86.016		0.399
			86.739		0.399
			87.462		0.4
			88.185		0.4
			88.908		0.4
			89.63		0.4
			90.353		0.401
			91.076		0.401
			91.799		0.401
			92.522		0.402
			93.244		0.402
			93.967		0.402
			94.69		0.403
			95.413		0.403
			96.136		0.403
			96.859		0.403
			97.581		0.404
			98.304		0.404
			99.027		0.404
			99.75		0.405
			100.473		0.405
			101.196		0.405
			101.918		0.406
			102.641		0.406
			103.364		0.406
			104.087		0.407
			104.81		0.407
			105.533		0.407
			106.255		0.408
			106.978		0.408
			107.701		0.408
			108.424		0.409
			109.147		0.409
			109.869		0.41
			110.592		0.41
			111.315		0.41
			112.038		0.411
			112.761		0.411
			113.484		0.411
			114.206		0.412
			114.929		0.412
			115.652		0.413
			116.375		0.413
			117.098		0.413
			117.821		0.414
			118.543		0.414
			119.266		0.414
			119.989		0.415
			120.712		0.415
			121.435		0.416
			122.158		0.416
			122.88		0.416
			123.603		0.417
			124.326		0.417
			125.049		0.418
			125.772		0.418
			126.494		0.419
			127.217		0.419
			127.94		0.419
			128.663		0.42
			129.386		0.42
			130.109		0.421
			130.831		0.421
			131.554		0.422
			132.277		0.422
			133		0.422
			133.723		0.423
			134.446		0.423
			135.168		0.424
			135.891		0.424
			136.614		0.425
			137.337		0.425
			138.06		0.426
			138.783		0.426
			139.505		0.427
			140.228		0.427
			140.951		0.428
			141.674		0.428
			142.397		0.429
			143.119		0.429
			143.842		0.43
			144.565		0.43
			145.288		0.431
			146.011		0.431
			146.734		0.432
			147.456		0.432
			148.179		0.433
			148.902		0.433
			149.625		0.434
			150.348		0.434
			151.071		0.435
			151.793		0.435
			152.516		0.436
			153.239		0.436
			153.962		0.437
			154.685		0.437
			155.408		0.438
			156.13		0.438
			156.853		0.439
			157.576		0.44
			158.299		0.44
			159.022		0.441
			159.744		0.441
			160.467		0.442
			161.19		0.442
			161.913		0.443
			162.636		0.444
			163.359		0.444
			164.081		0.445
			164.804		0.445
			165.527		0.446
			166.25		0.447
			166.973		0.447
			167.696		0.448
			168.418		0.448
			169.141		0.449
			169.864		0.45
			170.587		0.45
			171.31		0.451
			172.033		0.452
			172.755		0.452
			173.478		0.453
			174.201		0.453
			174.924		0.454
			175.647		0.455
			176.369		0.455
			177.092		0.456
			177.815		0.457
			178.538		0.457
			179.261		0.458
			179.984		0.459
			180.706		0.459
			181.429		0.46
			182.152		0.461
			182.875		0.462
			183.598		0.462
			184.321		0.463
			185.043		0.464
			185.766		0.464
			186.489		0.465
			187.212		0.466
			187.935		0.467
			188.657		0.467
			189.38		0.468
			190.103		0.469
			190.826		0.47
			191.549		0.47
			192.272		0.471
			192.994		0.472
			193.717		0.473
			194.44		0.473
			195.163		0.474
			195.886		0.475
			196.609		0.476
			197.331		0.477
			198.054		0.477
			198.777		0.478
			199.5		0.479
			200.223		0.48
			200.946		0.481
			201.668		0.481
			202.391		0.482
			203.114		0.483
			203.837		0.484
			204.56		0.485
			205.282		0.486
			206.005		0.487
			206.728		0.488
			207.451		0.488
			208.174		0.489
			208.897		0.49
			209.619		0.491
			210.342		0.492
			211.065		0.493
			211.788		0.494
			212.511		0.495
			213.234		0.496
			213.956		0.497
			214.679		0.498
			215.402		0.499
			216.125		0.5
			216.848		0.501
			217.571		0.502
			218.293		0.503
			219.016		0.504
			219.739		0.505
			220.462		0.506
			221.185		0.507
			221.907		0.509
			222.63		0.51
			223.353		0.511
			224.076		0.512
			224.799		0.513
			225.522		0.515
			226.244		0.516
			226.967		0.517
			227.69		0.518
			228.413		0.52
			229.136		0.521
			229.859		0.523
			230.581		0.524
			231.304		0.525
			232.027		0.527
			232.75		0.528
			233.473		0.53
			234.196		0.531
			234.918		0.533
			235.641		0.535
			236.364		0.536
			237.087		0.538
			237.81		0.54
			238.532		0.542
			239.255		0.544
			239.978		0.546
			240.701		0.548
			241.424		0.55
			242.147		0.552
			242.869		0.554
			243.592		0.556
			244.315		0.558
			245.038		0.561
			245.761		0.563
			246.484		0.566
			247.206		0.568
			247.929		0.571
			248.652		0.574
			249.375		0.577
			250.098		0.58
			250.821		0.583
			251.543		0.586
			252.266		0.589
			252.989		0.593
			253.712		0.596
			254.435		0.6
			255.157		0.604
			255.88		0.608
			256.603		0.612
			257.326		0.616
			258.049		0.621
			258.772		0.625
			259.494		0.63
			260.217		0.635
			260.94		0.64
			261.663		0.646
			262.386		0.652
			263.109		0.658
			263.831		0.664
			264.554		0.67
			265.277		0.677
			266		0.684
			266.723		0.691
			267.445		0.699
			268.168		0.707
			268.891		0.716
			269.614		0.724
			270.337		0.734
			271.06		0.743
			271.782		0.753
			272.505		0.764
			273.228		0.775
			273.951		0.786
			274.674		0.799
			275.397		0.811
			276.119		0.825
			276.842		0.839
			277.565		0.853
			278.288		0.869
			279.011		0.886
			279.734		0.904
			280.456		0.924
			281.179		0.945
			281.902		0.969
			282.625		0.996
			283.348		1.027
			284.07		1.062
			284.793		1.103
			285.516		1.148
			286.239		1.198
			286.962		1.25
			287.685		1.301
			288.407		1.347
			289.13		1.382
			289.853		1.4
			290.576		1.395
			291.299		1.364
			292.022		1.304
			292.744		1.216
			293.467		1.105
			294.19		0.976
			294.913		0.837
			295.636		0.697
			296.359		0.563
			297.081		0.441
			297.804		0.336
			298.527		0.248
			299.25		0.178
			299.973		0.125
			300.695		0.085
			301.418		0.057
			302.141		0.037
			302.864		0.024
			303.587		0.015
			304.31		0.009
			305.032		0.006
			305.755		0.004
			306.478		0.002
			307.201		0.001
			307.924		0.001
			308.647		0
			309.369		0
			310.092		0
			310.815		0
			311.538		0
			312.261		0
			312.984		0
			313.706		0
			314.429		0
			315.152		0
			315.875		0
			316.598		0
			317.32		0
			318.043		0
			318.766		0
			319.489		0
			320.212		0
			320.935		0
			321.657		0
			322.38		0
			323.103		0
			323.826		0
			324.549		0
			325.272		0
			325.994		0
			326.717		0
			327.44		0
			328.163		0
			328.886		0
			329.608		0
			330.331		0
			331.054		0
			331.777		0
			332.5		0
			333.223		0
			333.945		0
			334.668		0
			335.391		0
			336.114		0
			336.837		0
			337.56		0
			338.282		0
			339.005		0
			339.728		0
			340.451		0
			341.174		0
			341.897		0
			342.619		0
			343.342		0
			344.065		0
			344.788		0
			345.511		0
			346.233		0
			346.956		0
			347.679		0
			348.402		0
			349.125		0
			349.848		0
			350.57		0
			351.293		0
			352.016		0
			352.739		0
			353.462		0
			354.185		0
			354.907		0
			355.63		0
			356.353		0
			357.076		0
			357.799		0
			358.522		0
			359.244		0
			359.967		0
			360.69		0
		END_DATA
	END_SCAN  1
END_SCAN_DATA
