BEGIN_SCAN_DATA
	FORMAT=CC-Export V1.9                  
	FILE_CREATION_DATE=15-Aug-2018 11:54:40
	LAST_MODIFIED=15-Aug-2018 11:54:40
	BEGIN_SCAN  1
		TASK_NAME=tba PDD Profiles
		PROGRAM=tbaScan
		MEAS_DATE=15-Aug-2018 11:52:08
		LINAC=VARIAN PT
		MODALITY=P
		ISOCENTER=2500.00
		INPLANE_AXIS=Inplane
		CROSSPLANE_AXIS=Crossplane
		DEPTH_AXIS=Depth
		INPLANE_AXIS_DIR=GUN_TARGET
		CROSSPLANE_AXIS_DIR=LEFT_RIGHT
		DEPTH_AXIS_DIR=UP_DOWN
		ENERGY=220.00
		NOMINAL_DMAX=305.00
		SSD=2500.00
		SCD=1000.00
		BLOCK=0
		WEDGE_ANGLE=0.00
		FIELD_INPLANE=100.00
		FIELD_CROSSPLANE=100.00
		FIELD_TYPE=RECTANGULAR
		GANTRY=270.00
		GANTRY_UPRIGHT_POSITION=0
		GANTRY_ROTATION=CW
		COLL_ANGLE=0.00
		COLL_OFFSET_INPLANE=0.00
		COLL_OFFSET_CROSSPLANE=0.00
		SCAN_DEVICE=MP3
		SCAN_DEVICE_SETUP=BARA_LEFT_RIGHT
		ELECTROMETER=TANDEM_XDR
		RANGE_FIELD=HIGH
		RANGE_REFERENCE=AUTO
		DETECTOR=PLANE_PARALLEL_CHAMBER
		DETECTOR_RADIUS=0.00
		DETECTOR_NAME=PTW 34070 Bragg-Peak
		DETECTOR_SN=0000
		DETECTOR_CALIBRATION=1100000000.00
		DETECTOR_IS_CALIBRATED=0
		DETECTOR_REFERENCE=PLANE_PARALLEL_CHAMBER
		DETECTOR_REFERENCE_RADIUS=0.00
		DETECTOR_REFERENCE_NAME=PTW 34070 Bragg-Peak
		DETECTOR_REFERENCE_SN=0000
		DETECTOR_REFERENCE_IS_CALIBRATED=0
		DETECTOR_REFERENCE_CALIBRATION=1100000000.00
		DETECTOR_HV=400.0
		DETECTOR_REFERENCE_HV=400.0
		FILTER=FF
		REF_FIELD_DEPTH=0.00
		REF_FIELD_DEFINED=ISOCENTER
		REF_FIELD_INPLANE=40.00
		REF_FIELD_CROSSPLANE=40.00
		REF_SCAN_POSITIONS=0.00;10.00;20.00;30.00;40.00;50.00;60.00;70.00;80.00;90.00;100.00;110.00;120.00;125.00;130.00;135.00;140.00;145.00;150.00;155.00;160.00;165.00;170.00;175.00;180.00;185.00;190.00;192.00;194.00;196.00;198.00;200.00;202.00;204.00;206.00;208.00;210.00;212.00;214.00;216.00;218.00;220.00;222.00;224.00;226.00;228.00;230.00;232.00;234.00;236.00;238.00;240.00;242.00;244.00;246.00;248.00;250.00;252.00;254.00;256.00;258.00;260.00;262.00;264.00;266.00;268.00;270.00;272.00;274.00;276.00;278.00;280.00;282.00;284.00;286.00;288.00;290.00;
		SCAN_CURVETYPE=PDD
		SCAN_OFFAXIS_INPLANE=0.00
		SCAN_OFFAXIS_CROSSPLANE=0.00
		SCAN_ANGLE=0.00
		SCAN_DIAGONAL=NOT_DIAGONAL
		SCAN_DIRECTION=NEGATIVE
		MEAS_MEDIUM=WATER
		MEAS_PRESET=REFERENCE_DOSEMETER
		MEAS_TIME=0.100
		MEAS_UNIT=A.U.
		SCAN_SPEEDS=50.00; 1.00;150.00; 16.00;999.00; 50.00;
		DELAY_TIMES=50.00; 0.800;150.00; 0.400;999.90; 0.000;
		PRESSURE=1013.25
		TEMPERATURE=20.00
		NORM_TEMPERATURE=20.00
		CORRECTION_FACTOR=1.0000
		EXPECTED_MAX_DOSE_RATE=8.00
		BEGIN_DATA
			0		0.346
			0.767		0.346
			1.534		0.346
			2.301		0.346
			3.068		0.346
			3.835		0.346
			4.601		0.347
			5.368		0.347
			6.135		0.347
			6.902		0.348
			7.669		0.348
			8.436		0.349
			9.203		0.35
			9.97		0.35
			10.737		0.351
			11.504		0.352
			12.271		0.352
			13.038		0.353
			13.804		0.354
			14.571		0.355
			15.338		0.356
			16.105		0.357
			16.872		0.358
			17.639		0.359
			18.406		0.36
			19.173		0.362
			19.94		0.363
			20.707		0.364
			21.474		0.365
			22.24		0.366
			23.007		0.367
			23.774		0.368
			24.541		0.37
			25.308		0.371
			26.075		0.372
			26.842		0.373
			27.609		0.374
			28.376		0.375
			29.143		0.376
			29.91		0.377
			30.677		0.378
			31.444		0.379
			32.21		0.379
			32.977		0.38
			33.744		0.381
			34.511		0.381
			35.278		0.382
			36.045		0.383
			36.812		0.383
			37.579		0.384
			38.346		0.384
			39.113		0.384
			39.88		0.385
			40.646		0.385
			41.413		0.385
			42.18		0.386
			42.947		0.386
			43.714		0.386
			44.481		0.386
			45.248		0.387
			46.015		0.387
			46.782		0.387
			47.549		0.387
			48.316		0.387
			49.083		0.388
			49.849		0.388
			50.616		0.388
			51.383		0.388
			52.15		0.388
			52.917		0.388
			53.684		0.389
			54.451		0.389
			55.218		0.389
			55.985		0.389
			56.752		0.389
			57.519		0.39
			58.285		0.39
			59.052		0.39
			59.819		0.39
			60.586		0.39
			61.353		0.39
			62.12		0.391
			62.887		0.391
			63.654		0.391
			64.421		0.391
			65.188		0.391
			65.955		0.392
			66.721		0.392
			67.488		0.392
			68.255		0.392
			69.022		0.392
			69.789		0.393
			70.556		0.393
			71.323		0.393
			72.09		0.393
			72.857		0.394
			73.624		0.394
			74.391		0.394
			75.158		0.394
			75.924		0.394
			76.691		0.395
			77.458		0.395
			78.225		0.395
			78.992		0.395
			79.759		0.396
			80.526		0.396
			81.293		0.396
			82.06		0.396
			82.827		0.397
			83.594		0.397
			84.36		0.397
			85.127		0.397
			85.894		0.398
			86.661		0.398
			87.428		0.398
			88.195		0.398
			88.962		0.399
			89.729		0.399
			90.496		0.399
			91.263		0.399
			92.03		0.4
			92.797		0.4
			93.563		0.4
			94.33		0.401
			95.097		0.401
			95.864		0.401
			96.631		0.401
			97.398		0.402
			98.165		0.402
			98.932		0.402
			99.699		0.403
			100.466		0.403
			101.233		0.403
			102		0.404
			102.766		0.404
			103.533		0.404
			104.3		0.404
			105.067		0.405
			105.834		0.405
			106.601		0.405
			107.368		0.406
			108.135		0.406
			108.902		0.406
			109.669		0.407
			110.436		0.407
			111.203		0.407
			111.969		0.408
			112.736		0.408
			113.503		0.408
			114.27		0.409
			115.037		0.409
			115.804		0.409
			116.571		0.41
			117.338		0.41
			118.105		0.41
			118.872		0.411
			119.639		0.411
			120.405		0.412
			121.172		0.412
			121.939		0.412
			122.706		0.413
			123.473		0.413
			124.24		0.413
			125.007		0.414
			125.774		0.414
			126.541		0.414
			127.308		0.415
			128.075		0.415
			128.842		0.416
			129.608		0.416
			130.375		0.416
			131.142		0.417
			131.909		0.417
			132.676		0.418
			133.443		0.418
			134.21		0.418
			134.977		0.419
			135.744		0.419
			136.511		0.42
			137.278		0.42
			138.044		0.421
			138.811		0.421
			139.578		0.421
			140.345		0.422
			141.112		0.422
			141.879		0.423
			142.646		0.423
			143.413		0.424
			144.18		0.424
			144.947		0.424
			145.714		0.425
			146.481		0.425
			147.247		0.426
			148.014		0.426
			148.781		0.427
			149.548		0.427
			150.315		0.428
			151.082		0.428
			151.849		0.429
			152.616		0.429
			153.383		0.43
			154.15		0.43
			154.917		0.431
			155.684		0.431
			156.45		0.432
			157.217		0.432
			157.984		0.433
			158.751		0.433
			159.518		0.434
			160.285		0.434
			161.052		0.435
			161.819		0.435
			162.586		0.436
			163.353		0.436
			164.12		0.437
			164.886		0.437
			165.653		0.438
			166.42		0.439
			167.187		0.439
			167.954		0.44
			168.721		0.44
			169.488		0.441
			170.255		0.441
			171.022		0.442
			171.789		0.443
			172.556		0.443
			173.323		0.444
			174.089		0.444
			174.856		0.445
			175.623		0.446
			176.39		0.446
			177.157		0.447
			177.924		0.447
			178.691		0.448
			179.458		0.449
			180.225		0.449
			180.992		0.45
			181.759		0.451
			182.525		0.451
			183.292		0.452
			184.059		0.452
			184.826		0.453
			185.593		0.454
			186.36		0.454
			187.127		0.455
			187.894		0.456
			188.661		0.456
			189.428		0.457
			190.195		0.458
			190.962		0.459
			191.728		0.459
			192.495		0.46
			193.262		0.461
			194.029		0.461
			194.796		0.462
			195.563		0.463
			196.33		0.464
			197.097		0.464
			197.864		0.465
			198.631		0.466
			199.398		0.466
			200.165		0.467
			200.931		0.468
			201.698		0.469
			202.465		0.47
			203.232		0.47
			203.999		0.471
			204.766		0.472
			205.533		0.473
			206.3		0.473
			207.067		0.474
			207.834		0.475
			208.601		0.476
			209.367		0.477
			210.134		0.478
			210.901		0.478
			211.668		0.479
			212.435		0.48
			213.202		0.481
			213.969		0.482
			214.736		0.483
			215.503		0.484
			216.27		0.484
			217.037		0.485
			217.804		0.486
			218.57		0.487
			219.337		0.488
			220.104		0.489
			220.871		0.49
			221.638		0.491
			222.405		0.492
			223.172		0.493
			223.939		0.494
			224.706		0.495
			225.473		0.496
			226.24		0.497
			227.006		0.498
			227.773		0.499
			228.54		0.5
			229.307		0.501
			230.074		0.502
			230.841		0.504
			231.608		0.505
			232.375		0.506
			233.142		0.507
			233.909		0.508
			234.676		0.51
			235.443		0.511
			236.209		0.512
			236.976		0.513
			237.743		0.515
			238.51		0.516
			239.277		0.517
			240.044		0.519
			240.811		0.52
			241.578		0.522
			242.345		0.523
			243.112		0.525
			243.879		0.526
			244.646		0.528
			245.412		0.53
			246.179		0.531
			246.946		0.533
			247.713		0.535
			248.48		0.537
			249.247		0.539
			250.014		0.541
			250.781		0.543
			251.548		0.545
			252.315		0.547
			253.082		0.549
			253.848		0.551
			254.615		0.554
			255.382		0.556
			256.149		0.558
			256.916		0.561
			257.683		0.564
			258.45		0.566
			259.217		0.569
			259.984		0.572
			260.751		0.575
			261.518		0.578
			262.285		0.582
			263.051		0.585
			263.818		0.589
			264.585		0.592
			265.352		0.596
			266.119		0.6
			266.886		0.604
			267.653		0.608
			268.42		0.613
			269.187		0.618
			269.954		0.622
			270.721		0.628
			271.487		0.633
			272.254		0.638
			273.021		0.644
			273.788		0.65
			274.555		0.656
			275.322		0.663
			276.089		0.67
			276.856		0.677
			277.623		0.684
			278.39		0.692
			279.157		0.7
			279.924		0.709
			280.69		0.718
			281.457		0.727
			282.224		0.737
			282.991		0.747
			283.758		0.758
			284.525		0.769
			285.292		0.781
			286.059		0.793
			286.826		0.806
			287.593		0.82
			288.36		0.834
			289.127		0.849
			289.893		0.866
			290.66		0.883
			291.427		0.902
			292.194		0.922
			292.961		0.945
			293.728		0.97
			294.495		1
			295.262		1.033
			296.029		1.073
			296.796		1.117
			297.563		1.168
			298.329		1.221
			299.096		1.276
			299.863		1.326
			300.63		1.366
			301.397		1.39
			302.164		1.39
			302.931		1.361
			303.698		1.301
			304.465		1.211
			305.232		1.095
			305.999		0.96
			306.766		0.815
			307.532		0.67
			308.299		0.533
			309.066		0.41
			309.833		0.305
			310.6		0.22
			311.367		0.154
			312.134		0.105
			312.901		0.069
			313.668		0.045
			314.435		0.028
			315.202		0.018
			315.968		0.011
			316.735		0.006
			317.502		0.004
			318.269		0.002
			319.036		0.001
			319.803		0.001
			320.57		0
			321.337		0
			322.104		0
			322.871		0
			323.638		0
			324.405		0
			325.171		0
			325.938		0
			326.705		0
			327.472		0
			328.239		0
			329.006		0
			329.773		0
			330.54		0
			331.307		0
			332.074		0
			332.841		0
			333.608		0
			334.374		0
			335.141		0
			335.908		0
			336.675		0
			337.442		0
			338.209		0
			338.976		0
			339.743		0
			340.51		0
			341.277		0
			342.044		0
			342.81		0
			343.577		0
			344.344		0
			345.111		0
			345.878		0
			346.645		0
			347.412		0
			348.179		0
			348.946		0
			349.713		0
			350.48		0
			351.247		0
			352.013		0
			352.78		0
			353.547		0
			354.314		0
			355.081		0
			355.848		0
			356.615		0
			357.382		0
			358.149		0
			358.916		0
			359.683		0
			360.449		0
			361.216		0
			361.983		0
			362.75		0
			363.517		0
			364.284		0
			365.051		0
			365.818		0
			366.585		0
			367.352		0
			368.119		0
			368.886		0
			369.652		0
			370.419		0
			371.186		0
			371.953		0
			372.72		0
			373.487		0
			374.254		0
			375.021		0
			375.788		0
			376.555		0
			377.322		0
			378.089		0
			378.855		0
			379.622		0
			380.389		0
			381.156		0
			381.923		0
			382.69		0
		END_DATA
	END_SCAN  1
END_SCAN_DATA
