BEGIN_SCAN_DATA
	FORMAT=CC-Export V1.9                  
	FILE_CREATION_DATE=15-Aug-2018 11:58:21
	LAST_MODIFIED=15-Aug-2018 11:58:21
	BEGIN_SCAN  1
		TASK_NAME=tba PDD Profiles
		PROGRAM=tbaScan
		MEAS_DATE=15-Aug-2018 11:55:31
		LINAC=VARIAN PT
		MODALITY=P
		ISOCENTER=2500.00
		INPLANE_AXIS=Inplane
		CROSSPLANE_AXIS=Crossplane
		DEPTH_AXIS=Depth
		INPLANE_AXIS_DIR=GUN_TARGET
		CROSSPLANE_AXIS_DIR=LEFT_RIGHT
		DEPTH_AXIS_DIR=UP_DOWN
		ENERGY=225.00
		NOMINAL_DMAX=355.00
		SSD=2500.00
		SCD=1000.00
		BLOCK=0
		WEDGE_ANGLE=0.00
		FIELD_INPLANE=100.00
		FIELD_CROSSPLANE=100.00
		FIELD_TYPE=RECTANGULAR
		GANTRY=270.00
		GANTRY_UPRIGHT_POSITION=0
		GANTRY_ROTATION=CW
		COLL_ANGLE=0.00
		COLL_OFFSET_INPLANE=0.00
		COLL_OFFSET_CROSSPLANE=0.00
		SCAN_DEVICE=MP3
		SCAN_DEVICE_SETUP=BARA_LEFT_RIGHT
		ELECTROMETER=TANDEM_XDR
		RANGE_FIELD=HIGH
		RANGE_REFERENCE=AUTO
		DETECTOR=PLANE_PARALLEL_CHAMBER
		DETECTOR_RADIUS=0.00
		DETECTOR_NAME=PTW 34070 Bragg-Peak
		DETECTOR_SN=0000
		DETECTOR_CALIBRATION=1100000000.00
		DETECTOR_IS_CALIBRATED=0
		DETECTOR_REFERENCE=PLANE_PARALLEL_CHAMBER
		DETECTOR_REFERENCE_RADIUS=0.00
		DETECTOR_REFERENCE_NAME=PTW 34070 Bragg-Peak
		DETECTOR_REFERENCE_SN=0000
		DETECTOR_REFERENCE_IS_CALIBRATED=0
		DETECTOR_REFERENCE_CALIBRATION=1100000000.00
		DETECTOR_HV=400.0
		DETECTOR_REFERENCE_HV=400.0
		FILTER=FF
		REF_FIELD_DEPTH=0.00
		REF_FIELD_DEFINED=ISOCENTER
		REF_FIELD_INPLANE=40.00
		REF_FIELD_CROSSPLANE=40.00
		REF_SCAN_POSITIONS=0.00;10.00;20.00;30.00;40.00;50.00;60.00;70.00;80.00;90.00;100.00;105.00;110.00;115.00;120.00;125.00;130.00;135.00;140.00;145.00;150.00;155.00;160.00;165.00;170.00;175.00;180.00;185.00;190.00;192.00;194.00;196.00;198.00;200.00;202.00;204.00;206.00;208.00;210.00;212.00;214.00;216.00;218.00;220.00;222.00;224.00;226.00;228.00;230.00;232.00;234.00;236.00;238.00;240.00;242.00;244.00;246.00;248.00;250.00;252.00;254.00;256.00;258.00;260.00;262.00;264.00;266.00;268.00;270.00;272.00;274.00;276.00;278.00;280.00;282.00;284.00;286.00;288.00;290.00;291.00;292.00;293.00;294.00;295.00;296.00;297.00;298.00;299.00;300.00;301.00;302.00;303.00;304.00;305.00;306.00;307.00;308.00;309.00;310.00;311.00;312.00;313.00;314.00;315.00;316.00;317.00;318.00;319.00;320.00;321.00;322.00;323.00;324.00;325.00;326.00;327.00;328.00;329.00;330.00;331.00;332.00;333.00;334.00;335.00;336.00;337.00;338.00;339.00;340.00;341.00;342.00;343.00;344.00;345.00;346.00;347.00;348.00;349.00;350.00;351.00;352.00;353.00;354.00;355.00;356.00;357.00;358.00;359.00;360.00;361.00;362.00;363.00;364.00;365.00;
		SCAN_CURVETYPE=PDD
		SCAN_OFFAXIS_INPLANE=0.00
		SCAN_OFFAXIS_CROSSPLANE=0.00
		SCAN_ANGLE=0.00
		SCAN_DIAGONAL=NOT_DIAGONAL
		SCAN_DIRECTION=NEGATIVE
		MEAS_MEDIUM=WATER
		MEAS_PRESET=REFERENCE_DOSEMETER
		MEAS_TIME=0.100
		MEAS_UNIT=A.U.
		SCAN_SPEEDS=50.00; 1.00;150.00; 16.00;999.00; 50.00;
		DELAY_TIMES=50.00; 0.800;150.00; 0.400;999.90; 0.000;
		PRESSURE=1013.25
		TEMPERATURE=20.00
		NORM_TEMPERATURE=20.00
		CORRECTION_FACTOR=1.0000
		EXPECTED_MAX_DOSE_RATE=8.00
		BEGIN_DATA
			0		0.347
			0.767		0.347
			1.534		0.347
			2.301		0.347
			3.068		0.347
			3.835		0.347
			4.601		0.348
			5.368		0.348
			6.135		0.348
			6.902		0.349
			7.669		0.349
			8.436		0.35
			9.203		0.35
			9.97		0.351
			10.737		0.352
			11.504		0.353
			12.271		0.353
			13.038		0.354
			13.804		0.355
			14.571		0.356
			15.338		0.357
			16.105		0.358
			16.872		0.359
			17.639		0.36
			18.406		0.361
			19.173		0.362
			19.94		0.363
			20.707		0.364
			21.474		0.366
			22.24		0.367
			23.007		0.368
			23.774		0.369
			24.541		0.37
			25.308		0.371
			26.075		0.372
			26.842		0.373
			27.609		0.374
			28.376		0.375
			29.143		0.376
			29.91		0.377
			30.677		0.378
			31.444		0.379
			32.21		0.38
			32.977		0.381
			33.744		0.381
			34.511		0.382
			35.278		0.383
			36.045		0.383
			36.812		0.384
			37.579		0.384
			38.346		0.385
			39.113		0.385
			39.88		0.385
			40.646		0.386
			41.413		0.386
			42.18		0.386
			42.947		0.387
			43.714		0.387
			44.481		0.387
			45.248		0.387
			46.015		0.388
			46.782		0.388
			47.549		0.388
			48.316		0.388
			49.083		0.388
			49.849		0.389
			50.616		0.389
			51.383		0.389
			52.15		0.389
			52.917		0.389
			53.684		0.389
			54.451		0.39
			55.218		0.39
			55.985		0.39
			56.752		0.39
			57.519		0.39
			58.285		0.39
			59.052		0.391
			59.819		0.391
			60.586		0.391
			61.353		0.391
			62.12		0.391
			62.887		0.391
			63.654		0.392
			64.421		0.392
			65.188		0.392
			65.955		0.392
			66.721		0.392
			67.488		0.393
			68.255		0.393
			69.022		0.393
			69.789		0.393
			70.556		0.393
			71.323		0.394
			72.09		0.394
			72.857		0.394
			73.624		0.394
			74.391		0.394
			75.158		0.395
			75.924		0.395
			76.691		0.395
			77.458		0.395
			78.225		0.395
			78.992		0.396
			79.759		0.396
			80.526		0.396
			81.293		0.396
			82.06		0.396
			82.827		0.397
			83.594		0.397
			84.36		0.397
			85.127		0.397
			85.894		0.398
			86.661		0.398
			87.428		0.398
			88.195		0.398
			88.962		0.398
			89.729		0.399
			90.496		0.399
			91.263		0.399
			92.03		0.399
			92.797		0.4
			93.563		0.4
			94.33		0.4
			95.097		0.4
			95.864		0.401
			96.631		0.401
			97.398		0.401
			98.165		0.401
			98.932		0.402
			99.699		0.402
			100.466		0.402
			101.233		0.402
			102		0.403
			102.766		0.403
			103.533		0.403
			104.3		0.403
			105.067		0.404
			105.834		0.404
			106.601		0.404
			107.368		0.405
			108.135		0.405
			108.902		0.405
			109.669		0.405
			110.436		0.406
			111.203		0.406
			111.969		0.406
			112.736		0.406
			113.503		0.407
			114.27		0.407
			115.037		0.407
			115.804		0.408
			116.571		0.408
			117.338		0.408
			118.105		0.409
			118.872		0.409
			119.639		0.409
			120.405		0.409
			121.172		0.41
			121.939		0.41
			122.706		0.41
			123.473		0.411
			124.24		0.411
			125.007		0.411
			125.774		0.412
			126.541		0.412
			127.308		0.412
			128.075		0.413
			128.842		0.413
			129.608		0.413
			130.375		0.414
			131.142		0.414
			131.909		0.414
			132.676		0.415
			133.443		0.415
			134.21		0.415
			134.977		0.416
			135.744		0.416
			136.511		0.416
			137.278		0.417
			138.044		0.417
			138.811		0.417
			139.578		0.418
			140.345		0.418
			141.112		0.418
			141.879		0.419
			142.646		0.419
			143.413		0.42
			144.18		0.42
			144.947		0.42
			145.714		0.421
			146.481		0.421
			147.247		0.421
			148.014		0.422
			148.781		0.422
			149.548		0.423
			150.315		0.423
			151.082		0.423
			151.849		0.424
			152.616		0.424
			153.383		0.425
			154.15		0.425
			154.917		0.425
			155.684		0.426
			156.45		0.426
			157.217		0.427
			157.984		0.427
			158.751		0.428
			159.518		0.428
			160.285		0.429
			161.052		0.429
			161.819		0.429
			162.586		0.43
			163.353		0.43
			164.12		0.431
			164.886		0.431
			165.653		0.432
			166.42		0.432
			167.187		0.433
			167.954		0.433
			168.721		0.434
			169.488		0.434
			170.255		0.435
			171.022		0.435
			171.789		0.436
			172.556		0.436
			173.323		0.437
			174.089		0.437
			174.856		0.438
			175.623		0.438
			176.39		0.439
			177.157		0.439
			177.924		0.44
			178.691		0.44
			179.458		0.441
			180.225		0.441
			180.992		0.442
			181.759		0.443
			182.525		0.443
			183.292		0.444
			184.059		0.444
			184.826		0.445
			185.593		0.445
			186.36		0.446
			187.127		0.447
			187.894		0.447
			188.661		0.448
			189.428		0.448
			190.195		0.449
			190.962		0.45
			191.728		0.45
			192.495		0.451
			193.262		0.451
			194.029		0.452
			194.796		0.453
			195.563		0.453
			196.33		0.454
			197.097		0.454
			197.864		0.455
			198.631		0.456
			199.398		0.456
			200.165		0.457
			200.931		0.458
			201.698		0.458
			202.465		0.459
			203.232		0.46
			203.999		0.46
			204.766		0.461
			205.533		0.462
			206.3		0.462
			207.067		0.463
			207.834		0.464
			208.601		0.465
			209.367		0.465
			210.134		0.466
			210.901		0.467
			211.668		0.467
			212.435		0.468
			213.202		0.469
			213.969		0.47
			214.736		0.47
			215.503		0.471
			216.27		0.472
			217.037		0.473
			217.804		0.474
			218.57		0.474
			219.337		0.475
			220.104		0.476
			220.871		0.477
			221.638		0.477
			222.405		0.478
			223.172		0.479
			223.939		0.48
			224.706		0.481
			225.473		0.482
			226.24		0.483
			227.006		0.483
			227.773		0.484
			228.54		0.485
			229.307		0.486
			230.074		0.487
			230.841		0.488
			231.608		0.489
			232.375		0.49
			233.142		0.491
			233.909		0.492
			234.676		0.493
			235.443		0.494
			236.209		0.495
			236.976		0.496
			237.743		0.497
			238.51		0.498
			239.277		0.499
			240.044		0.5
			240.811		0.501
			241.578		0.502
			242.345		0.503
			243.112		0.504
			243.879		0.505
			244.646		0.506
			245.412		0.508
			246.179		0.509
			246.946		0.51
			247.713		0.511
			248.48		0.513
			249.247		0.514
			250.014		0.515
			250.781		0.517
			251.548		0.518
			252.315		0.52
			253.082		0.521
			253.848		0.523
			254.615		0.524
			255.382		0.526
			256.149		0.527
			256.916		0.529
			257.683		0.531
			258.45		0.532
			259.217		0.534
			259.984		0.536
			260.751		0.538
			261.518		0.54
			262.285		0.542
			263.051		0.544
			263.818		0.546
			264.585		0.548
			265.352		0.55
			266.119		0.553
			266.886		0.555
			267.653		0.558
			268.42		0.56
			269.187		0.563
			269.954		0.566
			270.721		0.568
			271.487		0.571
			272.254		0.574
			273.021		0.578
			273.788		0.581
			274.555		0.584
			275.322		0.588
			276.089		0.591
			276.856		0.595
			277.623		0.599
			278.39		0.603
			279.157		0.608
			279.924		0.612
			280.69		0.617
			281.457		0.621
			282.224		0.626
			282.991		0.632
			283.758		0.637
			284.525		0.643
			285.292		0.649
			286.059		0.655
			286.826		0.661
			287.593		0.668
			288.36		0.675
			289.127		0.682
			289.893		0.69
			290.66		0.698
			291.427		0.706
			292.194		0.715
			292.961		0.724
			293.728		0.733
			294.495		0.743
			295.262		0.753
			296.029		0.764
			296.796		0.776
			297.563		0.787
			298.329		0.8
			299.096		0.813
			299.863		0.827
			300.63		0.841
			301.397		0.857
			302.164		0.873
			302.931		0.891
			303.698		0.91
			304.465		0.931
			305.232		0.955
			305.999		0.982
			306.766		1.013
			307.532		1.05
			308.299		1.091
			309.066		1.139
			309.833		1.191
			310.6		1.245
			311.367		1.297
			312.134		1.342
			312.901		1.375
			313.668		1.387
			314.435		1.374
			315.202		1.332
			315.968		1.26
			316.735		1.159
			317.502		1.036
			318.269		0.899
			319.036		0.755
			319.803		0.614
			320.57		0.484
			321.337		0.369
			322.104		0.273
			322.871		0.196
			323.638		0.136
			324.405		0.092
			325.171		0.061
			325.938		0.039
			326.705		0.025
			327.472		0.015
			328.239		0.009
			329.006		0.006
			329.773		0.003
			330.54		0.002
			331.307		0.001
			332.074		0.001
			332.841		0
			333.608		0
			334.374		0
			335.141		0
			335.908		0
			336.675		0
			337.442		0
			338.209		0
			338.976		0
			339.743		0
			340.51		0
			341.277		0
			342.044		0
			342.81		0
			343.577		0
			344.344		0
			345.111		0
			345.878		0
			346.645		0
			347.412		0
			348.179		0
			348.946		0
			349.713		0
			350.48		0
			351.247		0
			352.013		0
			352.78		0
			353.547		0
			354.314		0
			355.081		0
			355.848		0
			356.615		0
			357.382		0
			358.149		0
			358.916		0
			359.683		0
			360.449		0
			361.216		0
			361.983		0
			362.75		0
			363.517		0
			364.284		0
			365.051		0
			365.818		0
			366.585		0
			367.352		0
			368.119		0
			368.886		0
			369.652		0
			370.419		0
			371.186		0
			371.953		0
			372.72		0
			373.487		0
			374.254		0
			375.021		0
			375.788		0
			376.555		0
			377.322		0
			378.089		0
			378.855		0
			379.622		0
			380.389		0
			381.156		0
			381.923		0
			382.69		0
		END_DATA
	END_SCAN  1
END_SCAN_DATA
