BEGIN_SCAN_DATA
	FORMAT=CC-Export V1.9                  
	FILE_CREATION_DATE=15-Aug-2018 11:58:21
	LAST_MODIFIED=15-Aug-2018 11:58:21
	BEGIN_SCAN  1
		TASK_NAME=tba PDD Profiles
		PROGRAM=tbaScan
		MEAS_DATE=15-Aug-2018 11:55:31
		LINAC=VARIAN PT
		MODALITY=P
		ISOCENTER=2500.00
		INPLANE_AXIS=Inplane
		CROSSPLANE_AXIS=Crossplane
		DEPTH_AXIS=Depth
		INPLANE_AXIS_DIR=GUN_TARGET
		CROSSPLANE_AXIS_DIR=LEFT_RIGHT
		DEPTH_AXIS_DIR=UP_DOWN
		ENERGY=230.00
		NOMINAL_DMAX=355.00
		SSD=2500.00
		SCD=1000.00
		BLOCK=0
		WEDGE_ANGLE=0.00
		FIELD_INPLANE=100.00
		FIELD_CROSSPLANE=100.00
		FIELD_TYPE=RECTANGULAR
		GANTRY=270.00
		GANTRY_UPRIGHT_POSITION=0
		GANTRY_ROTATION=CW
		COLL_ANGLE=0.00
		COLL_OFFSET_INPLANE=0.00
		COLL_OFFSET_CROSSPLANE=0.00
		SCAN_DEVICE=MP3
		SCAN_DEVICE_SETUP=BARA_LEFT_RIGHT
		ELECTROMETER=TANDEM_XDR
		RANGE_FIELD=HIGH
		RANGE_REFERENCE=AUTO
		DETECTOR=PLANE_PARALLEL_CHAMBER
		DETECTOR_RADIUS=0.00
		DETECTOR_NAME=PTW 34070 Bragg-Peak
		DETECTOR_SN=0000
		DETECTOR_CALIBRATION=1100000000.00
		DETECTOR_IS_CALIBRATED=0
		DETECTOR_REFERENCE=PLANE_PARALLEL_CHAMBER
		DETECTOR_REFERENCE_RADIUS=0.00
		DETECTOR_REFERENCE_NAME=PTW 34070 Bragg-Peak
		DETECTOR_REFERENCE_SN=0000
		DETECTOR_REFERENCE_IS_CALIBRATED=0
		DETECTOR_REFERENCE_CALIBRATION=1100000000.00
		DETECTOR_HV=400.0
		DETECTOR_REFERENCE_HV=400.0
		FILTER=FF
		REF_FIELD_DEPTH=0.00
		REF_FIELD_DEFINED=ISOCENTER
		REF_FIELD_INPLANE=40.00
		REF_FIELD_CROSSPLANE=40.00
		REF_SCAN_POSITIONS=0.00;10.00;20.00;30.00;40.00;50.00;60.00;70.00;80.00;90.00;100.00;105.00;110.00;115.00;120.00;125.00;130.00;135.00;140.00;145.00;150.00;155.00;160.00;165.00;170.00;175.00;180.00;185.00;190.00;192.00;194.00;196.00;198.00;200.00;202.00;204.00;206.00;208.00;210.00;212.00;214.00;216.00;218.00;220.00;222.00;224.00;226.00;228.00;230.00;232.00;234.00;236.00;238.00;240.00;242.00;244.00;246.00;248.00;250.00;252.00;254.00;256.00;258.00;260.00;262.00;264.00;266.00;268.00;270.00;272.00;274.00;276.00;278.00;280.00;282.00;284.00;286.00;288.00;290.00;291.00;292.00;293.00;294.00;295.00;296.00;297.00;298.00;299.00;300.00;301.00;302.00;303.00;304.00;305.00;306.00;307.00;308.00;309.00;310.00;311.00;312.00;313.00;314.00;315.00;316.00;317.00;318.00;319.00;320.00;321.00;322.00;323.00;324.00;325.00;326.00;327.00;328.00;329.00;330.00;331.00;332.00;333.00;334.00;335.00;336.00;337.00;338.00;339.00;340.00;341.00;342.00;343.00;344.00;345.00;346.00;347.00;348.00;349.00;350.00;351.00;352.00;353.00;354.00;355.00;356.00;357.00;358.00;359.00;360.00;361.00;362.00;363.00;364.00;365.00;
		SCAN_CURVETYPE=PDD
		SCAN_OFFAXIS_INPLANE=0.00
		SCAN_OFFAXIS_CROSSPLANE=0.00
		SCAN_ANGLE=0.00
		SCAN_DIAGONAL=NOT_DIAGONAL
		SCAN_DIRECTION=NEGATIVE
		MEAS_MEDIUM=WATER
		MEAS_PRESET=REFERENCE_DOSEMETER
		MEAS_TIME=0.100
		MEAS_UNIT=A.U.
		SCAN_SPEEDS=50.00; 1.00;150.00; 16.00;999.00; 50.00;
		DELAY_TIMES=50.00; 0.800;150.00; 0.400;999.90; 0.000;
		PRESSURE=1013.25
		TEMPERATURE=20.00
		NORM_TEMPERATURE=20.00
		CORRECTION_FACTOR=1.0000
		EXPECTED_MAX_DOSE_RATE=8.00
		BEGIN_DATA
			0		0.347
			0.767		0.347
			1.534		0.347
			2.301		0.347
			3.068		0.347
			3.835		0.348
			4.601		0.348
			5.368		0.348
			6.135		0.349
			6.902		0.349
			7.669		0.349
			8.436		0.35
			9.203		0.351
			9.97		0.351
			10.737		0.352
			11.504		0.353
			12.271		0.353
			13.038		0.354
			13.804		0.355
			14.571		0.356
			15.338		0.357
			16.105		0.358
			16.872		0.359
			17.639		0.36
			18.406		0.361
			19.173		0.362
			19.94		0.363
			20.707		0.364
			21.474		0.365
			22.24		0.366
			23.007		0.367
			23.774		0.369
			24.541		0.37
			25.308		0.371
			26.075		0.372
			26.842		0.373
			27.609		0.374
			28.376		0.375
			29.143		0.376
			29.91		0.377
			30.677		0.378
			31.444		0.379
			32.21		0.379
			32.977		0.38
			33.744		0.381
			34.511		0.382
			35.278		0.382
			36.045		0.383
			36.812		0.383
			37.579		0.384
			38.346		0.384
			39.113		0.385
			39.88		0.385
			40.646		0.386
			41.413		0.386
			42.18		0.386
			42.947		0.386
			43.714		0.387
			44.481		0.387
			45.248		0.387
			46.015		0.387
			46.782		0.388
			47.549		0.388
			48.316		0.388
			49.083		0.388
			49.849		0.388
			50.616		0.389
			51.383		0.389
			52.15		0.389
			52.917		0.389
			53.684		0.389
			54.451		0.389
			55.218		0.39
			55.985		0.39
			56.752		0.39
			57.519		0.39
			58.285		0.39
			59.052		0.39
			59.819		0.39
			60.586		0.391
			61.353		0.391
			62.12		0.391
			62.887		0.391
			63.654		0.391
			64.421		0.391
			65.188		0.392
			65.955		0.392
			66.721		0.392
			67.488		0.392
			68.255		0.392
			69.022		0.392
			69.789		0.393
			70.556		0.393
			71.323		0.393
			72.09		0.393
			72.857		0.393
			73.624		0.393
			74.391		0.394
			75.158		0.394
			75.924		0.394
			76.691		0.394
			77.458		0.394
			78.225		0.395
			78.992		0.395
			79.759		0.395
			80.526		0.395
			81.293		0.395
			82.06		0.396
			82.827		0.396
			83.594		0.396
			84.36		0.396
			85.127		0.396
			85.894		0.396
			86.661		0.397
			87.428		0.397
			88.195		0.397
			88.962		0.397
			89.729		0.398
			90.496		0.398
			91.263		0.398
			92.03		0.398
			92.797		0.398
			93.563		0.399
			94.33		0.399
			95.097		0.399
			95.864		0.399
			96.631		0.399
			97.398		0.4
			98.165		0.4
			98.932		0.4
			99.699		0.4
			100.466		0.4
			101.233		0.401
			102		0.401
			102.766		0.401
			103.533		0.401
			104.3		0.402
			105.067		0.402
			105.834		0.402
			106.601		0.402
			107.368		0.403
			108.135		0.403
			108.902		0.403
			109.669		0.403
			110.436		0.403
			111.203		0.404
			111.969		0.404
			112.736		0.404
			113.503		0.404
			114.27		0.405
			115.037		0.405
			115.804		0.405
			116.571		0.405
			117.338		0.406
			118.105		0.406
			118.872		0.406
			119.639		0.406
			120.405		0.407
			121.172		0.407
			121.939		0.407
			122.706		0.407
			123.473		0.408
			124.24		0.408
			125.007		0.408
			125.774		0.408
			126.541		0.409
			127.308		0.409
			128.075		0.409
			128.842		0.41
			129.608		0.41
			130.375		0.41
			131.142		0.41
			131.909		0.411
			132.676		0.411
			133.443		0.411
			134.21		0.412
			134.977		0.412
			135.744		0.412
			136.511		0.412
			137.278		0.413
			138.044		0.413
			138.811		0.413
			139.578		0.414
			140.345		0.414
			141.112		0.414
			141.879		0.415
			142.646		0.415
			143.413		0.415
			144.18		0.415
			144.947		0.416
			145.714		0.416
			146.481		0.416
			147.247		0.417
			148.014		0.417
			148.781		0.417
			149.548		0.418
			150.315		0.418
			151.082		0.418
			151.849		0.419
			152.616		0.419
			153.383		0.419
			154.15		0.42
			154.917		0.42
			155.684		0.421
			156.45		0.421
			157.217		0.421
			157.984		0.422
			158.751		0.422
			159.518		0.422
			160.285		0.423
			161.052		0.423
			161.819		0.424
			162.586		0.424
			163.353		0.424
			164.12		0.425
			164.886		0.425
			165.653		0.425
			166.42		0.426
			167.187		0.426
			167.954		0.427
			168.721		0.427
			169.488		0.428
			170.255		0.428
			171.022		0.428
			171.789		0.429
			172.556		0.429
			173.323		0.43
			174.089		0.43
			174.856		0.431
			175.623		0.431
			176.39		0.431
			177.157		0.432
			177.924		0.432
			178.691		0.433
			179.458		0.433
			180.225		0.434
			180.992		0.434
			181.759		0.435
			182.525		0.435
			183.292		0.436
			184.059		0.436
			184.826		0.437
			185.593		0.437
			186.36		0.438
			187.127		0.438
			187.894		0.439
			188.661		0.439
			189.428		0.44
			190.195		0.44
			190.962		0.441
			191.728		0.441
			192.495		0.442
			193.262		0.442
			194.029		0.443
			194.796		0.443
			195.563		0.444
			196.33		0.445
			197.097		0.445
			197.864		0.446
			198.631		0.446
			199.398		0.447
			200.165		0.447
			200.931		0.448
			201.698		0.449
			202.465		0.449
			203.232		0.45
			203.999		0.45
			204.766		0.451
			205.533		0.452
			206.3		0.452
			207.067		0.453
			207.834		0.453
			208.601		0.454
			209.367		0.455
			210.134		0.455
			210.901		0.456
			211.668		0.456
			212.435		0.457
			213.202		0.458
			213.969		0.458
			214.736		0.459
			215.503		0.46
			216.27		0.46
			217.037		0.461
			217.804		0.462
			218.57		0.462
			219.337		0.463
			220.104		0.464
			220.871		0.464
			221.638		0.465
			222.405		0.466
			223.172		0.467
			223.939		0.467
			224.706		0.468
			225.473		0.469
			226.24		0.469
			227.006		0.47
			227.773		0.471
			228.54		0.472
			229.307		0.472
			230.074		0.473
			230.841		0.474
			231.608		0.475
			232.375		0.475
			233.142		0.476
			233.909		0.477
			234.676		0.478
			235.443		0.479
			236.209		0.479
			236.976		0.48
			237.743		0.481
			238.51		0.482
			239.277		0.483
			240.044		0.484
			240.811		0.485
			241.578		0.485
			242.345		0.486
			243.112		0.487
			243.879		0.488
			244.646		0.489
			245.412		0.49
			246.179		0.491
			246.946		0.492
			247.713		0.493
			248.48		0.494
			249.247		0.495
			250.014		0.496
			250.781		0.497
			251.548		0.498
			252.315		0.499
			253.082		0.5
			253.848		0.501
			254.615		0.502
			255.382		0.504
			256.149		0.505
			256.916		0.506
			257.683		0.507
			258.45		0.508
			259.217		0.51
			259.984		0.511
			260.751		0.512
			261.518		0.514
			262.285		0.515
			263.051		0.516
			263.818		0.518
			264.585		0.519
			265.352		0.521
			266.119		0.522
			266.886		0.524
			267.653		0.525
			268.42		0.527
			269.187		0.529
			269.954		0.53
			270.721		0.532
			271.487		0.534
			272.254		0.536
			273.021		0.538
			273.788		0.54
			274.555		0.542
			275.322		0.544
			276.089		0.546
			276.856		0.549
			277.623		0.551
			278.39		0.553
			279.157		0.556
			279.924		0.558
			280.69		0.561
			281.457		0.564
			282.224		0.566
			282.991		0.569
			283.758		0.572
			284.525		0.576
			285.292		0.579
			286.059		0.582
			286.826		0.586
			287.593		0.589
			288.36		0.593
			289.127		0.597
			289.893		0.601
			290.66		0.605
			291.427		0.61
			292.194		0.614
			292.961		0.619
			293.728		0.624
			294.495		0.629
			295.262		0.634
			296.029		0.64
			296.796		0.646
			297.563		0.652
			298.329		0.658
			299.096		0.664
			299.863		0.671
			300.63		0.678
			301.397		0.686
			302.164		0.693
			302.931		0.701
			303.698		0.71
			304.465		0.719
			305.232		0.728
			305.999		0.737
			306.766		0.747
			307.532		0.758
			308.299		0.768
			309.066		0.78
			309.833		0.792
			310.6		0.804
			311.367		0.817
			312.134		0.831
			312.901		0.846
			313.668		0.861
			314.435		0.878
			315.202		0.896
			315.968		0.915
			316.735		0.938
			317.502		0.963
			318.269		0.991
			319.036		1.025
			319.803		1.063
			320.57		1.107
			321.337		1.157
			322.104		1.209
			322.871		1.262
			323.638		1.312
			324.405		1.351
			325.171		1.375
			325.938		1.377
			326.705		1.352
			327.472		1.297
			328.239		1.215
			329.006		1.106
			329.773		0.979
			330.54		0.841
			331.307		0.7
			332.074		0.565
			332.841		0.442
			333.608		0.335
			334.374		0.246
			335.141		0.175
			335.908		0.122
			336.675		0.082
			337.442		0.054
			338.209		0.035
			338.976		0.022
			339.743		0.014
			340.51		0.008
			341.277		0.005
			342.044		0.003
			342.81		0.002
			343.577		0.001
			344.344		0.001
			345.111		0
			345.878		0
			346.645		0
			347.412		0
			348.179		0
			348.946		0
			349.713		0
			350.48		0
			351.247		0
			352.013		0
			352.78		0
			353.547		0
			354.314		0
			355.081		0
			355.848		0
			356.615		0
			357.382		0
			358.149		0
			358.916		0
			359.683		0
			360.449		0
			361.216		0
			361.983		0
			362.75		0
			363.517		0
			364.284		0
			365.051		0
			365.818		0
			366.585		0
			367.352		0
			368.119		0
			368.886		0
			369.652		0
			370.419		0
			371.186		0
			371.953		0
			372.72		0
			373.487		0
			374.254		0
			375.021		0
			375.788		0
			376.555		0
			377.322		0
			378.089		0
			378.855		0
			379.622		0
			380.389		0
			381.156		0
			381.923		0
			382.69		0
		END_DATA
	END_SCAN  1
END_SCAN_DATA
