BEGIN_SCAN_DATA
	FORMAT=CC-Export V1.9                  
	FILE_CREATION_DATE=15-Aug-2018 11:58:21
	LAST_MODIFIED=15-Aug-2018 11:58:21
	BEGIN_SCAN  1
		TASK_NAME=tba PDD Profiles
		PROGRAM=tbaScan
		MEAS_DATE=15-Aug-2018 11:55:31
		LINAC=VARIAN PT
		MODALITY=P
		ISOCENTER=2500.00
		INPLANE_AXIS=Inplane
		CROSSPLANE_AXIS=Crossplane
		DEPTH_AXIS=Depth
		INPLANE_AXIS_DIR=GUN_TARGET
		CROSSPLANE_AXIS_DIR=LEFT_RIGHT
		DEPTH_AXIS_DIR=UP_DOWN
		ENERGY=235.00
		NOMINAL_DMAX=355.00
		SSD=2500.00
		SCD=1000.00
		BLOCK=0
		WEDGE_ANGLE=0.00
		FIELD_INPLANE=100.00
		FIELD_CROSSPLANE=100.00
		FIELD_TYPE=RECTANGULAR
		GANTRY=270.00
		GANTRY_UPRIGHT_POSITION=0
		GANTRY_ROTATION=CW
		COLL_ANGLE=0.00
		COLL_OFFSET_INPLANE=0.00
		COLL_OFFSET_CROSSPLANE=0.00
		SCAN_DEVICE=MP3
		SCAN_DEVICE_SETUP=BARA_LEFT_RIGHT
		ELECTROMETER=TANDEM_XDR
		RANGE_FIELD=HIGH
		RANGE_REFERENCE=AUTO
		DETECTOR=PLANE_PARALLEL_CHAMBER
		DETECTOR_RADIUS=0.00
		DETECTOR_NAME=PTW 34070 Bragg-Peak
		DETECTOR_SN=0000
		DETECTOR_CALIBRATION=1100000000.00
		DETECTOR_IS_CALIBRATED=0
		DETECTOR_REFERENCE=PLANE_PARALLEL_CHAMBER
		DETECTOR_REFERENCE_RADIUS=0.00
		DETECTOR_REFERENCE_NAME=PTW 34070 Bragg-Peak
		DETECTOR_REFERENCE_SN=0000
		DETECTOR_REFERENCE_IS_CALIBRATED=0
		DETECTOR_REFERENCE_CALIBRATION=1100000000.00
		DETECTOR_HV=400.0
		DETECTOR_REFERENCE_HV=400.0
		FILTER=FF
		REF_FIELD_DEPTH=0.00
		REF_FIELD_DEFINED=ISOCENTER
		REF_FIELD_INPLANE=40.00
		REF_FIELD_CROSSPLANE=40.00
		REF_SCAN_POSITIONS=0.00;10.00;20.00;30.00;40.00;50.00;60.00;70.00;80.00;90.00;100.00;105.00;110.00;115.00;120.00;125.00;130.00;135.00;140.00;145.00;150.00;155.00;160.00;165.00;170.00;175.00;180.00;185.00;190.00;192.00;194.00;196.00;198.00;200.00;202.00;204.00;206.00;208.00;210.00;212.00;214.00;216.00;218.00;220.00;222.00;224.00;226.00;228.00;230.00;232.00;234.00;236.00;238.00;240.00;242.00;244.00;246.00;248.00;250.00;252.00;254.00;256.00;258.00;260.00;262.00;264.00;266.00;268.00;270.00;272.00;274.00;276.00;278.00;280.00;282.00;284.00;286.00;288.00;290.00;291.00;292.00;293.00;294.00;295.00;296.00;297.00;298.00;299.00;300.00;301.00;302.00;303.00;304.00;305.00;306.00;307.00;308.00;309.00;310.00;311.00;312.00;313.00;314.00;315.00;316.00;317.00;318.00;319.00;320.00;321.00;322.00;323.00;324.00;325.00;326.00;327.00;328.00;329.00;330.00;331.00;332.00;333.00;334.00;335.00;336.00;337.00;338.00;339.00;340.00;341.00;342.00;343.00;344.00;345.00;346.00;347.00;348.00;349.00;350.00;351.00;352.00;353.00;354.00;355.00;356.00;357.00;358.00;359.00;360.00;361.00;362.00;363.00;364.00;365.00;
		SCAN_CURVETYPE=PDD
		SCAN_OFFAXIS_INPLANE=0.00
		SCAN_OFFAXIS_CROSSPLANE=0.00
		SCAN_ANGLE=0.00
		SCAN_DIAGONAL=NOT_DIAGONAL
		SCAN_DIRECTION=NEGATIVE
		MEAS_MEDIUM=WATER
		MEAS_PRESET=REFERENCE_DOSEMETER
		MEAS_TIME=0.100
		MEAS_UNIT=A.U.
		SCAN_SPEEDS=50.00; 1.00;150.00; 16.00;999.00; 50.00;
		DELAY_TIMES=50.00; 0.800;150.00; 0.400;999.90; 0.000;
		PRESSURE=1013.25
		TEMPERATURE=20.00
		NORM_TEMPERATURE=20.00
		CORRECTION_FACTOR=1.0000
		EXPECTED_MAX_DOSE_RATE=8.00
		BEGIN_DATA
			0		0.347
			0.855		0.347
			1.71		0.347
			2.565		0.347
			3.42		0.347
			4.275		0.348
			5.131		0.348
			5.986		0.348
			6.841		0.349
			7.696		0.349
			8.551		0.35
			9.406		0.351
			10.261		0.351
			11.116		0.352
			11.971		0.353
			12.826		0.354
			13.681		0.355
			14.536		0.356
			15.392		0.357
			16.247		0.358
			17.102		0.359
			17.957		0.36
			18.812		0.361
			19.667		0.362
			20.522		0.363
			21.377		0.365
			22.232		0.366
			23.087		0.367
			23.942		0.368
			24.798		0.369
			25.653		0.371
			26.508		0.372
			27.363		0.373
			28.218		0.374
			29.073		0.375
			29.928		0.376
			30.783		0.377
			31.638		0.378
			32.493		0.379
			33.348		0.38
			34.204		0.381
			35.059		0.381
			35.914		0.382
			36.769		0.383
			37.624		0.383
			38.479		0.384
			39.334		0.384
			40.189		0.385
			41.044		0.385
			41.899		0.386
			42.755		0.386
			43.61		0.386
			44.465		0.387
			45.32		0.387
			46.175		0.387
			47.03		0.388
			47.885		0.388
			48.74		0.388
			49.595		0.388
			50.45		0.388
			51.305		0.389
			52.16		0.389
			53.016		0.389
			53.871		0.389
			54.726		0.389
			55.581		0.389
			56.436		0.39
			57.291		0.39
			58.146		0.39
			59.001		0.39
			59.856		0.39
			60.711		0.39
			61.567		0.39
			62.422		0.391
			63.277		0.391
			64.132		0.391
			64.987		0.391
			65.842		0.391
			66.697		0.391
			67.552		0.392
			68.407		0.392
			69.262		0.392
			70.117		0.392
			70.973		0.392
			71.828		0.393
			72.683		0.393
			73.538		0.393
			74.393		0.393
			75.248		0.393
			76.103		0.393
			76.958		0.394
			77.813		0.394
			78.668		0.394
			79.523		0.394
			80.379		0.394
			81.234		0.395
			82.089		0.395
			82.944		0.395
			83.799		0.395
			84.654		0.395
			85.509		0.396
			86.364		0.396
			87.219		0.396
			88.074		0.396
			88.929		0.396
			89.785		0.397
			90.64		0.397
			91.495		0.397
			92.35		0.397
			93.205		0.397
			94.06		0.398
			94.915		0.398
			95.77		0.398
			96.625		0.398
			97.48		0.398
			98.335		0.399
			99.19		0.399
			100.046		0.399
			100.901		0.399
			101.756		0.399
			102.611		0.4
			103.466		0.4
			104.321		0.4
			105.176		0.4
			106.031		0.4
			106.886		0.401
			107.741		0.401
			108.596		0.401
			109.452		0.401
			110.307		0.402
			111.162		0.402
			112.017		0.402
			112.872		0.402
			113.727		0.402
			114.582		0.403
			115.437		0.403
			116.292		0.403
			117.147		0.403
			118.002		0.404
			118.858		0.404
			119.713		0.404
			120.568		0.404
			121.423		0.405
			122.278		0.405
			123.133		0.405
			123.988		0.405
			124.843		0.405
			125.698		0.406
			126.553		0.406
			127.408		0.406
			128.264		0.406
			129.119		0.407
			129.974		0.407
			130.829		0.407
			131.684		0.407
			132.539		0.408
			133.394		0.408
			134.249		0.408
			135.104		0.408
			135.959		0.409
			136.814		0.409
			137.67		0.409
			138.525		0.41
			139.38		0.41
			140.235		0.41
			141.09		0.41
			141.945		0.411
			142.8		0.411
			143.655		0.411
			144.51		0.412
			145.365		0.412
			146.22		0.412
			147.076		0.412
			147.931		0.413
			148.786		0.413
			149.641		0.413
			150.496		0.414
			151.351		0.414
			152.206		0.414
			153.061		0.415
			153.916		0.415
			154.771		0.415
			155.626		0.416
			156.482		0.416
			157.337		0.416
			158.192		0.417
			159.047		0.417
			159.902		0.417
			160.757		0.418
			161.612		0.418
			162.467		0.418
			163.322		0.419
			164.177		0.419
			165.032		0.419
			165.887		0.42
			166.743		0.42
			167.598		0.421
			168.453		0.421
			169.308		0.421
			170.163		0.422
			171.018		0.422
			171.873		0.422
			172.728		0.423
			173.583		0.423
			174.438		0.424
			175.293		0.424
			176.149		0.425
			177.004		0.425
			177.859		0.425
			178.714		0.426
			179.569		0.426
			180.424		0.427
			181.279		0.427
			182.134		0.428
			182.989		0.428
			183.844		0.429
			184.699		0.429
			185.555		0.43
			186.41		0.43
			187.265		0.431
			188.12		0.431
			188.975		0.432
			189.83		0.432
			190.685		0.433
			191.54		0.433
			192.395		0.434
			193.25		0.434
			194.105		0.435
			194.961		0.435
			195.816		0.436
			196.671		0.436
			197.526		0.437
			198.381		0.437
			199.236		0.438
			200.091		0.438
			200.946		0.439
			201.801		0.439
			202.656		0.44
			203.511		0.441
			204.367		0.441
			205.222		0.442
			206.077		0.442
			206.932		0.443
			207.787		0.444
			208.642		0.444
			209.497		0.445
			210.352		0.445
			211.207		0.446
			212.062		0.447
			212.917		0.447
			213.773		0.448
			214.628		0.448
			215.483		0.449
			216.338		0.45
			217.193		0.45
			218.048		0.451
			218.903		0.452
			219.758		0.452
			220.613		0.453
			221.468		0.454
			222.323		0.454
			223.179		0.455
			224.034		0.456
			224.889		0.456
			225.744		0.457
			226.599		0.458
			227.454		0.459
			228.309		0.459
			229.164		0.46
			230.019		0.461
			230.874		0.461
			231.729		0.462
			232.585		0.463
			233.44		0.464
			234.295		0.464
			235.15		0.465
			236.005		0.466
			236.86		0.467
			237.715		0.468
			238.57		0.468
			239.425		0.469
			240.28		0.47
			241.135		0.471
			241.991		0.472
			242.846		0.472
			243.701		0.473
			244.556		0.474
			245.411		0.475
			246.266		0.476
			247.121		0.477
			247.976		0.478
			248.831		0.479
			249.686		0.479
			250.541		0.48
			251.397		0.481
			252.252		0.482
			253.107		0.483
			253.962		0.484
			254.817		0.485
			255.672		0.486
			256.527		0.487
			257.382		0.488
			258.237		0.489
			259.092		0.49
			259.947		0.491
			260.803		0.492
			261.658		0.494
			262.513		0.495
			263.368		0.496
			264.223		0.497
			265.078		0.498
			265.933		0.499
			266.788		0.501
			267.643		0.502
			268.498		0.503
			269.353		0.505
			270.208		0.506
			271.064		0.507
			271.919		0.509
			272.774		0.51
			273.629		0.512
			274.484		0.513
			275.339		0.515
			276.194		0.516
			277.049		0.518
			277.904		0.52
			278.759		0.522
			279.614		0.523
			280.47		0.525
			281.325		0.527
			282.18		0.529
			283.035		0.531
			283.89		0.533
			284.745		0.535
			285.6		0.538
			286.455		0.54
			287.31		0.542
			288.165		0.545
			289.02		0.547
			289.876		0.55
			290.731		0.553
			291.586		0.556
			292.441		0.558
			293.296		0.562
			294.151		0.565
			295.006		0.568
			295.861		0.571
			296.716		0.575
			297.571		0.579
			298.426		0.582
			299.282		0.586
			300.137		0.591
			300.992		0.595
			301.847		0.599
			302.702		0.604
			303.557		0.609
			304.412		0.614
			305.267		0.619
			306.122		0.625
			306.977		0.631
			307.832		0.637
			308.688		0.643
			309.543		0.65
			310.398		0.657
			311.253		0.664
			312.108		0.672
			312.963		0.68
			313.818		0.688
			314.673		0.697
			315.528		0.706
			316.383		0.715
			317.238		0.725
			318.094		0.736
			318.949		0.746
			319.804		0.758
			320.659		0.77
			321.514		0.783
			322.369		0.796
			323.224		0.81
			324.079		0.825
			324.934		0.84
			325.789		0.857
			326.644		0.876
			327.5		0.896
			328.355		0.918
			329.21		0.944
			330.065		0.974
			330.92		1.009
			331.775		1.05
			332.63		1.098
			333.485		1.152
			334.34		1.21
			335.195		1.267
			336.05		1.318
			336.906		1.354
			337.761		1.367
			338.616		1.349
			339.471		1.298
			340.326		1.212
			341.181		1.095
			342.036		0.956
			342.891		0.805
			343.746		0.653
			344.601		0.51
			345.456		0.383
			346.312		0.277
			347.167		0.194
			348.022		0.131
			348.877		0.085
			349.732		0.054
			350.587		0.033
			351.442		0.02
			352.297		0.012
			353.152		0.007
			354.007		0.004
			354.862		0.002
			355.718		0.001
			356.573		0.001
			357.428		0
			358.283		0
			359.138		0
			359.993		0
			360.848		0
			361.703		0
			362.558		0
			363.413		0
			364.268		0
			365.124		0
			365.979		0
			366.834		0
			367.689		0
			368.544		0
			369.399		0
			370.254		0
			371.109		0
			371.964		0
			372.819		0
			373.674		0
			374.529		0
			375.385		0
			376.24		0
			377.095		0
			377.95		0
			378.805		0
			379.66		0
			380.515		0
			381.37		0
			382.225		0
			383.08		0
			383.935		0
			384.791		0
			385.646		0
			386.501		0
			387.356		0
			388.211		0
			389.066		0
			389.921		0
			390.776		0
			391.631		0
			392.486		0
			393.341		0
			394.197		0
			395.052		0
			395.907		0
			396.762		0
			397.617		0
			398.472		0
			399.327		0
			400.182		0
			401.037		0
			401.892		0
			402.747		0
			403.603		0
			404.458		0
			405.313		0
			406.168		0
			407.023		0
			407.878		0
			408.733		0
			409.588		0
			410.443		0
			411.298		0
			412.153		0
			413.009		0
			413.864		0
			414.719		0
			415.574		0
			416.429		0
			417.284		0
			418.139		0
			418.994		0
			419.849		0
			420.704		0
			421.559		0
			422.415		0
			423.27		0
			424.125		0
			424.98		0
			425.835		0
			426.69		0
		END_DATA
	END_SCAN  1
END_SCAN_DATA
