BEGIN_SCAN_DATA
	FORMAT=CC-Export V1.9                  
	FILE_CREATION_DATE=15-Aug-2018 11:58:21
	LAST_MODIFIED=15-Aug-2018 11:58:21
	BEGIN_SCAN  1
		TASK_NAME=tba PDD Profiles
		PROGRAM=tbaScan
		MEAS_DATE=15-Aug-2018 11:55:31
		LINAC=VARIAN PT
		MODALITY=P
		ISOCENTER=2500.00
		INPLANE_AXIS=Inplane
		CROSSPLANE_AXIS=Crossplane
		DEPTH_AXIS=Depth
		INPLANE_AXIS_DIR=GUN_TARGET
		CROSSPLANE_AXIS_DIR=LEFT_RIGHT
		DEPTH_AXIS_DIR=UP_DOWN
		ENERGY=240.00
		NOMINAL_DMAX=355.00
		SSD=2500.00
		SCD=1000.00
		BLOCK=0
		WEDGE_ANGLE=0.00
		FIELD_INPLANE=100.00
		FIELD_CROSSPLANE=100.00
		FIELD_TYPE=RECTANGULAR
		GANTRY=270.00
		GANTRY_UPRIGHT_POSITION=0
		GANTRY_ROTATION=CW
		COLL_ANGLE=0.00
		COLL_OFFSET_INPLANE=0.00
		COLL_OFFSET_CROSSPLANE=0.00
		SCAN_DEVICE=MP3
		SCAN_DEVICE_SETUP=BARA_LEFT_RIGHT
		ELECTROMETER=TANDEM_XDR
		RANGE_FIELD=HIGH
		RANGE_REFERENCE=AUTO
		DETECTOR=PLANE_PARALLEL_CHAMBER
		DETECTOR_RADIUS=0.00
		DETECTOR_NAME=PTW 34070 Bragg-Peak
		DETECTOR_SN=0000
		DETECTOR_CALIBRATION=1100000000.00
		DETECTOR_IS_CALIBRATED=0
		DETECTOR_REFERENCE=PLANE_PARALLEL_CHAMBER
		DETECTOR_REFERENCE_RADIUS=0.00
		DETECTOR_REFERENCE_NAME=PTW 34070 Bragg-Peak
		DETECTOR_REFERENCE_SN=0000
		DETECTOR_REFERENCE_IS_CALIBRATED=0
		DETECTOR_REFERENCE_CALIBRATION=1100000000.00
		DETECTOR_HV=400.0
		DETECTOR_REFERENCE_HV=400.0
		FILTER=FF
		REF_FIELD_DEPTH=0.00
		REF_FIELD_DEFINED=ISOCENTER
		REF_FIELD_INPLANE=40.00
		REF_FIELD_CROSSPLANE=40.00
		REF_SCAN_POSITIONS=0.00;10.00;20.00;30.00;40.00;50.00;60.00;70.00;80.00;90.00;100.00;105.00;110.00;115.00;120.00;125.00;130.00;135.00;140.00;145.00;150.00;155.00;160.00;165.00;170.00;175.00;180.00;185.00;190.00;192.00;194.00;196.00;198.00;200.00;202.00;204.00;206.00;208.00;210.00;212.00;214.00;216.00;218.00;220.00;222.00;224.00;226.00;228.00;230.00;232.00;234.00;236.00;238.00;240.00;242.00;244.00;246.00;248.00;250.00;252.00;254.00;256.00;258.00;260.00;262.00;264.00;266.00;268.00;270.00;272.00;274.00;276.00;278.00;280.00;282.00;284.00;286.00;288.00;290.00;291.00;292.00;293.00;294.00;295.00;296.00;297.00;298.00;299.00;300.00;301.00;302.00;303.00;304.00;305.00;306.00;307.00;308.00;309.00;310.00;311.00;312.00;313.00;314.00;315.00;316.00;317.00;318.00;319.00;320.00;321.00;322.00;323.00;324.00;325.00;326.00;327.00;328.00;329.00;330.00;331.00;332.00;333.00;334.00;335.00;336.00;337.00;338.00;339.00;340.00;341.00;342.00;343.00;344.00;345.00;346.00;347.00;348.00;349.00;350.00;351.00;352.00;353.00;354.00;355.00;356.00;357.00;358.00;359.00;360.00;361.00;362.00;363.00;364.00;365.00;
		SCAN_CURVETYPE=PDD
		SCAN_OFFAXIS_INPLANE=0.00
		SCAN_OFFAXIS_CROSSPLANE=0.00
		SCAN_ANGLE=0.00
		SCAN_DIAGONAL=NOT_DIAGONAL
		SCAN_DIRECTION=NEGATIVE
		MEAS_MEDIUM=WATER
		MEAS_PRESET=REFERENCE_DOSEMETER
		MEAS_TIME=0.100
		MEAS_UNIT=A.U.
		SCAN_SPEEDS=50.00; 1.00;150.00; 16.00;999.00; 50.00;
		DELAY_TIMES=50.00; 0.800;150.00; 0.400;999.90; 0.000;
		PRESSURE=1013.25
		TEMPERATURE=20.00
		NORM_TEMPERATURE=20.00
		CORRECTION_FACTOR=1.0000
		EXPECTED_MAX_DOSE_RATE=8.00
		BEGIN_DATA
			0		0.347
			0.899		0.347
			1.798		0.347
			2.698		0.347
			3.597		0.348
			4.496		0.348
			5.395		0.348
			6.294		0.349
			7.193		0.349
			8.093		0.35
			8.992		0.35
			9.891		0.351
			10.79		0.352
			11.689		0.353
			12.589		0.354
			13.488		0.354
			14.387		0.355
			15.286		0.356
			16.185		0.358
			17.084		0.359
			17.984		0.36
			18.883		0.361
			19.782		0.362
			20.681		0.363
			21.58		0.365
			22.479		0.366
			23.379		0.367
			24.278		0.368
			25.177		0.37
			26.076		0.371
			26.975		0.372
			27.875		0.373
			28.774		0.374
			29.673		0.375
			30.572		0.377
			31.471		0.378
			32.37		0.379
			33.27		0.379
			34.169		0.38
			35.068		0.381
			35.967		0.382
			36.866		0.383
			37.765		0.383
			38.665		0.384
			39.564		0.384
			40.463		0.385
			41.362		0.385
			42.261		0.386
			43.161		0.386
			44.06		0.386
			44.959		0.387
			45.858		0.387
			46.757		0.387
			47.657		0.388
			48.556		0.388
			49.455		0.388
			50.354		0.388
			51.253		0.388
			52.152		0.389
			53.051		0.389
			53.951		0.389
			54.85		0.389
			55.749		0.389
			56.648		0.389
			57.547		0.39
			58.447		0.39
			59.346		0.39
			60.245		0.39
			61.144		0.39
			62.043		0.39
			62.943		0.391
			63.842		0.391
			64.741		0.391
			65.64		0.391
			66.539		0.391
			67.438		0.391
			68.338		0.392
			69.237		0.392
			70.136		0.392
			71.035		0.392
			71.934		0.392
			72.833		0.392
			73.733		0.393
			74.632		0.393
			75.531		0.393
			76.43		0.393
			77.329		0.393
			78.229		0.393
			79.128		0.394
			80.027		0.394
			80.926		0.394
			81.825		0.394
			82.724		0.394
			83.624		0.395
			84.523		0.395
			85.422		0.395
			86.321		0.395
			87.22		0.395
			88.119		0.395
			89.019		0.396
			89.918		0.396
			90.817		0.396
			91.716		0.396
			92.615		0.396
			93.515		0.397
			94.414		0.397
			95.313		0.397
			96.212		0.397
			97.111		0.397
			98.01		0.397
			98.91		0.398
			99.809		0.398
			100.708		0.398
			101.607		0.398
			102.506		0.398
			103.406		0.399
			104.305		0.399
			105.204		0.399
			106.103		0.399
			107.002		0.399
			107.901		0.4
			108.801		0.4
			109.7		0.4
			110.599		0.4
			111.498		0.4
			112.397		0.4
			113.296		0.401
			114.196		0.401
			115.095		0.401
			115.994		0.401
			116.893		0.401
			117.792		0.402
			118.692		0.402
			119.591		0.402
			120.49		0.402
			121.389		0.402
			122.288		0.403
			123.187		0.403
			124.087		0.403
			124.986		0.403
			125.885		0.403
			126.784		0.404
			127.683		0.404
			128.583		0.404
			129.482		0.404
			130.381		0.404
			131.28		0.405
			132.179		0.405
			133.078		0.405
			133.978		0.405
			134.877		0.406
			135.776		0.406
			136.675		0.406
			137.574		0.406
			138.473		0.406
			139.373		0.407
			140.272		0.407
			141.171		0.407
			142.07		0.407
			142.969		0.408
			143.869		0.408
			144.768		0.408
			145.667		0.408
			146.566		0.409
			147.465		0.409
			148.364		0.409
			149.264		0.409
			150.163		0.41
			151.062		0.41
			151.961		0.41
			152.86		0.41
			153.759		0.411
			154.659		0.411
			155.558		0.411
			156.457		0.411
			157.356		0.412
			158.255		0.412
			159.155		0.412
			160.054		0.413
			160.953		0.413
			161.852		0.413
			162.751		0.414
			163.65		0.414
			164.55		0.414
			165.449		0.414
			166.348		0.415
			167.247		0.415
			168.146		0.415
			169.046		0.416
			169.945		0.416
			170.844		0.416
			171.743		0.417
			172.642		0.417
			173.541		0.418
			174.441		0.418
			175.34		0.418
			176.239		0.419
			177.138		0.419
			178.037		0.419
			178.936		0.42
			179.836		0.42
			180.735		0.421
			181.634		0.421
			182.533		0.421
			183.432		0.422
			184.332		0.422
			185.231		0.423
			186.13		0.423
			187.029		0.423
			187.928		0.424
			188.827		0.424
			189.727		0.425
			190.626		0.425
			191.525		0.426
			192.424		0.426
			193.323		0.427
			194.223		0.427
			195.122		0.428
			196.021		0.428
			196.92		0.429
			197.819		0.429
			198.718		0.43
			199.618		0.43
			200.517		0.431
			201.416		0.431
			202.315		0.432
			203.214		0.432
			204.113		0.433
			205.013		0.433
			205.912		0.434
			206.811		0.434
			207.71		0.435
			208.609		0.435
			209.509		0.436
			210.408		0.436
			211.307		0.437
			212.206		0.438
			213.105		0.438
			214.004		0.439
			214.904		0.439
			215.803		0.44
			216.702		0.44
			217.601		0.441
			218.5		0.442
			219.4		0.442
			220.299		0.443
			221.198		0.444
			222.097		0.444
			222.996		0.445
			223.895		0.445
			224.795		0.446
			225.694		0.447
			226.593		0.447
			227.492		0.448
			228.391		0.449
			229.29		0.449
			230.19		0.45
			231.089		0.451
			231.988		0.451
			232.887		0.452
			233.786		0.453
			234.686		0.453
			235.585		0.454
			236.484		0.455
			237.383		0.455
			238.282		0.456
			239.181		0.457
			240.081		0.458
			240.98		0.458
			241.879		0.459
			242.778		0.46
			243.677		0.461
			244.577		0.461
			245.476		0.462
			246.375		0.463
			247.274		0.464
			248.173		0.465
			249.072		0.465
			249.972		0.466
			250.871		0.467
			251.77		0.468
			252.669		0.469
			253.568		0.469
			254.467		0.47
			255.367		0.471
			256.266		0.472
			257.165		0.473
			258.064		0.474
			258.963		0.475
			259.863		0.476
			260.762		0.476
			261.661		0.477
			262.56		0.478
			263.459		0.479
			264.358		0.48
			265.258		0.481
			266.157		0.482
			267.056		0.483
			267.955		0.484
			268.854		0.485
			269.754		0.486
			270.653		0.488
			271.552		0.489
			272.451		0.49
			273.35		0.491
			274.249		0.492
			275.149		0.493
			276.048		0.495
			276.947		0.496
			277.846		0.497
			278.745		0.498
			279.644		0.5
			280.544		0.501
			281.443		0.502
			282.342		0.504
			283.241		0.505
			284.14		0.507
			285.04		0.508
			285.939		0.51
			286.838		0.512
			287.737		0.513
			288.636		0.515
			289.535		0.517
			290.435		0.519
			291.334		0.52
			292.233		0.522
			293.132		0.524
			294.031		0.526
			294.931		0.529
			295.83		0.531
			296.729		0.533
			297.628		0.535
			298.527		0.538
			299.426		0.54
			300.326		0.543
			301.225		0.546
			302.124		0.548
			303.023		0.551
			303.922		0.554
			304.821		0.557
			305.721		0.561
			306.62		0.564
			307.519		0.568
			308.418		0.571
			309.317		0.575
			310.217		0.579
			311.116		0.583
			312.015		0.587
			312.914		0.592
			313.813		0.597
			314.712		0.601
			315.612		0.607
			316.511		0.612
			317.41		0.617
			318.309		0.623
			319.208		0.629
			320.107		0.636
			321.007		0.642
			321.906		0.649
			322.805		0.656
			323.704		0.664
			324.603		0.672
			325.503		0.68
			326.402		0.689
			327.301		0.698
			328.2		0.708
			329.099		0.718
			329.998		0.728
			330.898		0.74
			331.797		0.751
			332.696		0.763
			333.595		0.776
			334.494		0.79
			335.394		0.804
			336.293		0.819
			337.192		0.835
			338.091		0.852
			338.99		0.871
			339.889		0.892
			340.789		0.915
			341.688		0.942
			342.587		0.974
			343.486		1.013
			344.385		1.058
			345.284		1.11
			346.184		1.168
			347.083		1.228
			347.982		1.285
			348.881		1.329
			349.78		1.353
			350.68		1.348
			351.579		1.307
			352.478		1.229
			353.377		1.116
			354.276		0.978
			355.175		0.824
			356.075		0.667
			356.974		0.519
			357.873		0.387
			358.772		0.278
			359.671		0.192
			360.571		0.127
			361.47		0.082
			362.369		0.051
			363.268		0.03
			364.167		0.018
			365.066		0.01
			365.966		0.006
			366.865		0.003
			367.764		0.002
			368.663		0.001
			369.562		0
			370.461		0
			371.361		0
			372.26		0
			373.159		0
			374.058		0
			374.957		0
			375.857		0
			376.756		0
			377.655		0
			378.554		0
			379.453		0
			380.352		0
			381.252		0
			382.151		0
			383.05		0
			383.949		0
			384.848		0
			385.748		0
			386.647		0
			387.546		0
			388.445		0
			389.344		0
			390.243		0
			391.143		0
			392.042		0
			392.941		0
			393.84		0
			394.739		0
			395.638		0
			396.538		0
			397.437		0
			398.336		0
			399.235		0
			400.134		0
			401.034		0
			401.933		0
			402.832		0
			403.731		0
			404.63		0
			405.529		0
			406.429		0
			407.328		0
			408.227		0
			409.126		0
			410.025		0
			410.925		0
			411.824		0
			412.723		0
			413.622		0
			414.521		0
			415.42		0
			416.32		0
			417.219		0
			418.118		0
			419.017		0
			419.916		0
			420.815		0
			421.715		0
			422.614		0
			423.513		0
			424.412		0
			425.311		0
			426.211		0
			427.11		0
			428.009		0
			428.908		0
			429.807		0
			430.706		0
			431.606		0
			432.505		0
			433.404		0
			434.303		0
			435.202		0
			436.102		0
			437.001		0
			437.9		0
			438.799		0
			439.698		0
			440.597		0
			441.497		0
			442.396		0
			443.295		0
			444.194		0
			445.093		0
			445.992		0
			446.892		0
			447.791		0
			448.69		0
		END_DATA
	END_SCAN  1
END_SCAN_DATA
