BEGIN_SCAN_DATA
	FORMAT=CC-Export V1.9                  
	FILE_CREATION_DATE=15-Aug-2018 11:58:21
	LAST_MODIFIED=15-Aug-2018 11:58:21
	BEGIN_SCAN  1
		TASK_NAME=tba PDD Profiles
		PROGRAM=tbaScan
		MEAS_DATE=15-Aug-2018 11:55:31
		LINAC=VARIAN PT
		MODALITY=P
		ISOCENTER=2500.00
		INPLANE_AXIS=Inplane
		CROSSPLANE_AXIS=Crossplane
		DEPTH_AXIS=Depth
		INPLANE_AXIS_DIR=GUN_TARGET
		CROSSPLANE_AXIS_DIR=LEFT_RIGHT
		DEPTH_AXIS_DIR=UP_DOWN
		ENERGY=244.00
		NOMINAL_DMAX=355.00
		SSD=2500.00
		SCD=1000.00
		BLOCK=0
		WEDGE_ANGLE=0.00
		FIELD_INPLANE=100.00
		FIELD_CROSSPLANE=100.00
		FIELD_TYPE=RECTANGULAR
		GANTRY=270.00
		GANTRY_UPRIGHT_POSITION=0
		GANTRY_ROTATION=CW
		COLL_ANGLE=0.00
		COLL_OFFSET_INPLANE=0.00
		COLL_OFFSET_CROSSPLANE=0.00
		SCAN_DEVICE=MP3
		SCAN_DEVICE_SETUP=BARA_LEFT_RIGHT
		ELECTROMETER=TANDEM_XDR
		RANGE_FIELD=HIGH
		RANGE_REFERENCE=AUTO
		DETECTOR=PLANE_PARALLEL_CHAMBER
		DETECTOR_RADIUS=0.00
		DETECTOR_NAME=PTW 34070 Bragg-Peak
		DETECTOR_SN=0000
		DETECTOR_CALIBRATION=1100000000.00
		DETECTOR_IS_CALIBRATED=0
		DETECTOR_REFERENCE=PLANE_PARALLEL_CHAMBER
		DETECTOR_REFERENCE_RADIUS=0.00
		DETECTOR_REFERENCE_NAME=PTW 34070 Bragg-Peak
		DETECTOR_REFERENCE_SN=0000
		DETECTOR_REFERENCE_IS_CALIBRATED=0
		DETECTOR_REFERENCE_CALIBRATION=1100000000.00
		DETECTOR_HV=400.0
		DETECTOR_REFERENCE_HV=400.0
		FILTER=FF
		REF_FIELD_DEPTH=0.00
		REF_FIELD_DEFINED=ISOCENTER
		REF_FIELD_INPLANE=40.00
		REF_FIELD_CROSSPLANE=40.00
		REF_SCAN_POSITIONS=0.00;10.00;20.00;30.00;40.00;50.00;60.00;70.00;80.00;90.00;100.00;105.00;110.00;115.00;120.00;125.00;130.00;135.00;140.00;145.00;150.00;155.00;160.00;165.00;170.00;175.00;180.00;185.00;190.00;192.00;194.00;196.00;198.00;200.00;202.00;204.00;206.00;208.00;210.00;212.00;214.00;216.00;218.00;220.00;222.00;224.00;226.00;228.00;230.00;232.00;234.00;236.00;238.00;240.00;242.00;244.00;246.00;248.00;250.00;252.00;254.00;256.00;258.00;260.00;262.00;264.00;266.00;268.00;270.00;272.00;274.00;276.00;278.00;280.00;282.00;284.00;286.00;288.00;290.00;291.00;292.00;293.00;294.00;295.00;296.00;297.00;298.00;299.00;300.00;301.00;302.00;303.00;304.00;305.00;306.00;307.00;308.00;309.00;310.00;311.00;312.00;313.00;314.00;315.00;316.00;317.00;318.00;319.00;320.00;321.00;322.00;323.00;324.00;325.00;326.00;327.00;328.00;329.00;330.00;331.00;332.00;333.00;334.00;335.00;336.00;337.00;338.00;339.00;340.00;341.00;342.00;343.00;344.00;345.00;346.00;347.00;348.00;349.00;350.00;351.00;352.00;353.00;354.00;355.00;356.00;357.00;358.00;359.00;360.00;361.00;362.00;363.00;364.00;365.00;
		SCAN_CURVETYPE=PDD
		SCAN_OFFAXIS_INPLANE=0.00
		SCAN_OFFAXIS_CROSSPLANE=0.00
		SCAN_ANGLE=0.00
		SCAN_DIAGONAL=NOT_DIAGONAL
		SCAN_DIRECTION=NEGATIVE
		MEAS_MEDIUM=WATER
		MEAS_PRESET=REFERENCE_DOSEMETER
		MEAS_TIME=0.100
		MEAS_UNIT=A.U.
		SCAN_SPEEDS=50.00; 1.00;150.00; 16.00;999.00; 50.00;
		DELAY_TIMES=50.00; 0.800;150.00; 0.400;999.90; 0.000;
		PRESSURE=1013.25
		TEMPERATURE=20.00
		NORM_TEMPERATURE=20.00
		CORRECTION_FACTOR=1.0000
		EXPECTED_MAX_DOSE_RATE=8.00
		BEGIN_DATA
			0		0.347
			0.855		0.347
			1.71		0.347
			2.565		0.347
			3.42		0.348
			4.275		0.348
			5.131		0.348
			5.986		0.349
			6.841		0.349
			7.696		0.35
			8.551		0.35
			9.406		0.351
			10.261		0.352
			11.116		0.352
			11.971		0.353
			12.826		0.354
			13.681		0.355
			14.536		0.356
			15.392		0.357
			16.247		0.358
			17.102		0.359
			17.957		0.36
			18.812		0.361
			19.667		0.362
			20.522		0.363
			21.377		0.364
			22.232		0.365
			23.087		0.367
			23.942		0.368
			24.798		0.369
			25.653		0.37
			26.508		0.371
			27.363		0.372
			28.218		0.373
			29.073		0.374
			29.928		0.376
			30.783		0.377
			31.638		0.377
			32.493		0.378
			33.348		0.379
			34.204		0.38
			35.059		0.381
			35.914		0.382
			36.769		0.382
			37.624		0.383
			38.479		0.384
			39.334		0.384
			40.189		0.385
			41.044		0.385
			41.899		0.385
			42.755		0.386
			43.61		0.386
			44.465		0.387
			45.32		0.387
			46.175		0.387
			47.03		0.387
			47.885		0.388
			48.74		0.388
			49.595		0.388
			50.45		0.388
			51.305		0.388
			52.16		0.389
			53.016		0.389
			53.871		0.389
			54.726		0.389
			55.581		0.389
			56.436		0.389
			57.291		0.39
			58.146		0.39
			59.001		0.39
			59.856		0.39
			60.711		0.39
			61.567		0.39
			62.422		0.39
			63.277		0.391
			64.132		0.391
			64.987		0.391
			65.842		0.391
			66.697		0.391
			67.552		0.391
			68.407		0.391
			69.262		0.392
			70.117		0.392
			70.973		0.392
			71.828		0.392
			72.683		0.392
			73.538		0.392
			74.393		0.393
			75.248		0.393
			76.103		0.393
			76.958		0.393
			77.813		0.393
			78.668		0.393
			79.523		0.393
			80.379		0.394
			81.234		0.394
			82.089		0.394
			82.944		0.394
			83.799		0.394
			84.654		0.394
			85.509		0.395
			86.364		0.395
			87.219		0.395
			88.074		0.395
			88.929		0.395
			89.785		0.395
			90.64		0.395
			91.495		0.396
			92.35		0.396
			93.205		0.396
			94.06		0.396
			94.915		0.396
			95.77		0.396
			96.625		0.397
			97.48		0.397
			98.335		0.397
			99.19		0.397
			100.046		0.397
			100.901		0.397
			101.756		0.398
			102.611		0.398
			103.466		0.398
			104.321		0.398
			105.176		0.398
			106.031		0.398
			106.886		0.398
			107.741		0.399
			108.596		0.399
			109.452		0.399
			110.307		0.399
			111.162		0.399
			112.017		0.399
			112.872		0.4
			113.727		0.4
			114.582		0.4
			115.437		0.4
			116.292		0.4
			117.147		0.4
			118.002		0.4
			118.858		0.401
			119.713		0.401
			120.568		0.401
			121.423		0.401
			122.278		0.401
			123.133		0.401
			123.988		0.402
			124.843		0.402
			125.698		0.402
			126.553		0.402
			127.408		0.402
			128.264		0.402
			129.119		0.403
			129.974		0.403
			130.829		0.403
			131.684		0.403
			132.539		0.403
			133.394		0.403
			134.249		0.404
			135.104		0.404
			135.959		0.404
			136.814		0.404
			137.67		0.404
			138.525		0.404
			139.38		0.405
			140.235		0.405
			141.09		0.405
			141.945		0.405
			142.8		0.405
			143.655		0.405
			144.51		0.406
			145.365		0.406
			146.22		0.406
			147.076		0.406
			147.931		0.406
			148.786		0.407
			149.641		0.407
			150.496		0.407
			151.351		0.407
			152.206		0.407
			153.061		0.408
			153.916		0.408
			154.771		0.408
			155.626		0.408
			156.482		0.408
			157.337		0.409
			158.192		0.409
			159.047		0.409
			159.902		0.409
			160.757		0.41
			161.612		0.41
			162.467		0.41
			163.322		0.41
			164.177		0.411
			165.032		0.411
			165.887		0.411
			166.743		0.411
			167.598		0.412
			168.453		0.412
			169.308		0.412
			170.163		0.412
			171.018		0.413
			171.873		0.413
			172.728		0.413
			173.583		0.414
			174.438		0.414
			175.293		0.414
			176.149		0.414
			177.004		0.415
			177.859		0.415
			178.714		0.415
			179.569		0.416
			180.424		0.416
			181.279		0.416
			182.134		0.417
			182.989		0.417
			183.844		0.417
			184.699		0.418
			185.555		0.418
			186.41		0.418
			187.265		0.419
			188.12		0.419
			188.975		0.42
			189.83		0.42
			190.685		0.42
			191.54		0.421
			192.395		0.421
			193.25		0.421
			194.105		0.422
			194.961		0.422
			195.816		0.423
			196.671		0.423
			197.526		0.423
			198.381		0.424
			199.236		0.424
			200.091		0.425
			200.946		0.425
			201.801		0.426
			202.656		0.426
			203.511		0.426
			204.367		0.427
			205.222		0.427
			206.077		0.428
			206.932		0.428
			207.787		0.429
			208.642		0.429
			209.497		0.43
			210.352		0.43
			211.207		0.431
			212.062		0.431
			212.917		0.432
			213.773		0.432
			214.628		0.433
			215.483		0.433
			216.338		0.434
			217.193		0.434
			218.048		0.435
			218.903		0.435
			219.758		0.436
			220.613		0.436
			221.468		0.437
			222.323		0.437
			223.179		0.438
			224.034		0.438
			224.889		0.439
			225.744		0.439
			226.599		0.44
			227.454		0.441
			228.309		0.441
			229.164		0.442
			230.019		0.442
			230.874		0.443
			231.729		0.443
			232.585		0.444
			233.44		0.445
			234.295		0.445
			235.15		0.446
			236.005		0.446
			236.86		0.447
			237.715		0.448
			238.57		0.448
			239.425		0.449
			240.28		0.449
			241.135		0.45
			241.991		0.451
			242.846		0.451
			243.701		0.452
			244.556		0.453
			245.411		0.453
			246.266		0.454
			247.121		0.455
			247.976		0.455
			248.831		0.456
			249.686		0.457
			250.541		0.457
			251.397		0.458
			252.252		0.459
			253.107		0.459
			253.962		0.46
			254.817		0.461
			255.672		0.461
			256.527		0.462
			257.382		0.463
			258.237		0.464
			259.092		0.464
			259.947		0.465
			260.803		0.466
			261.658		0.467
			262.513		0.467
			263.368		0.468
			264.223		0.469
			265.078		0.47
			265.933		0.471
			266.788		0.471
			267.643		0.472
			268.498		0.473
			269.353		0.474
			270.208		0.475
			271.064		0.476
			271.919		0.477
			272.774		0.477
			273.629		0.478
			274.484		0.479
			275.339		0.48
			276.194		0.481
			277.049		0.482
			277.904		0.483
			278.759		0.484
			279.614		0.485
			280.47		0.486
			281.325		0.487
			282.18		0.488
			283.035		0.489
			283.89		0.49
			284.745		0.492
			285.6		0.493
			286.455		0.494
			287.31		0.495
			288.165		0.496
			289.02		0.498
			289.876		0.499
			290.731		0.5
			291.586		0.501
			292.441		0.503
			293.296		0.504
			294.151		0.506
			295.006		0.507
			295.861		0.509
			296.716		0.51
			297.571		0.512
			298.426		0.513
			299.282		0.515
			300.137		0.517
			300.992		0.519
			301.847		0.52
			302.702		0.522
			303.557		0.524
			304.412		0.526
			305.267		0.528
			306.122		0.53
			306.977		0.533
			307.832		0.535
			308.688		0.537
			309.543		0.54
			310.398		0.542
			311.253		0.545
			312.108		0.547
			312.963		0.55
			313.818		0.553
			314.673		0.556
			315.528		0.559
			316.383		0.562
			317.238		0.566
			318.094		0.569
			318.949		0.573
			319.804		0.576
			320.659		0.58
			321.514		0.584
			322.369		0.589
			323.224		0.593
			324.079		0.597
			324.934		0.602
			325.789		0.607
			326.644		0.612
			327.5		0.617
			328.355		0.623
			329.21		0.629
			330.065		0.635
			330.92		0.641
			331.775		0.647
			332.63		0.654
			333.485		0.661
			334.34		0.669
			335.195		0.677
			336.05		0.685
			336.906		0.693
			337.761		0.702
			338.616		0.711
			339.471		0.721
			340.326		0.731
			341.181		0.741
			342.036		0.752
			342.891		0.764
			343.746		0.776
			344.601		0.789
			345.456		0.802
			346.312		0.816
			347.167		0.831
			348.022		0.847
			348.877		0.864
			349.732		0.883
			350.587		0.905
			351.442		0.929
			352.297		0.958
			353.152		0.992
			354.007		1.032
			354.862		1.078
			355.718		1.13
			356.573		1.186
			357.428		1.241
			358.283		1.291
			359.138		1.327
			359.993		1.344
			360.848		1.334
			361.703		1.292
			362.558		1.218
			363.413		1.114
			364.268		0.987
			365.124		0.846
			365.979		0.7
			366.834		0.559
			367.689		0.43
			368.544		0.32
			369.399		0.23
			370.254		0.16
			371.109		0.107
			371.964		0.07
			372.819		0.044
			373.674		0.027
			374.529		0.016
			375.385		0.01
			376.24		0.006
			377.095		0.003
			377.95		0.002
			378.805		0.001
			379.66		0.001
			380.515		0
			381.37		0
			382.225		0
			383.08		0
			383.935		0
			384.791		0
			385.646		0
			386.501		0
			387.356		0
			388.211		0
			389.066		0
			389.921		0
			390.776		0
			391.631		0
			392.486		0
			393.341		0
			394.197		0
			395.052		0
			395.907		0
			396.762		0
			397.617		0
			398.472		0
			399.327		0
			400.182		0
			401.037		0
			401.892		0
			402.747		0
			403.603		0
			404.458		0
			405.313		0
			406.168		0
			407.023		0
			407.878		0
			408.733		0
			409.588		0
			410.443		0
			411.298		0
			412.153		0
			413.009		0
			413.864		0
			414.719		0
			415.574		0
			416.429		0
			417.284		0
			418.139		0
			418.994		0
			419.849		0
			420.704		0
			421.559		0
			422.415		0
			423.27		0
			424.125		0
			424.98		0
			425.835		0
			426.69		0
		END_DATA
	END_SCAN  1
END_SCAN_DATA
