BEGIN_SCAN_DATA
	FORMAT=CC-Export V1.9                  
	FILE_CREATION_DATE=15-Aug-2018 12:02:37
	LAST_MODIFIED=15-Aug-2018 12:02:37
	BEGIN_SCAN  1
		TASK_NAME=tba PDD Profiles
		PROGRAM=tbaScan
		MEAS_DATE=15-Aug-2018 11:59:34
		LINAC=VARIAN PT
		MODALITY=P
		ISOCENTER=2500.00
		INPLANE_AXIS=Inplane
		CROSSPLANE_AXIS=Crossplane
		DEPTH_AXIS=Depth
		INPLANE_AXIS_DIR=GUN_TARGET
		CROSSPLANE_AXIS_DIR=LEFT_RIGHT
		DEPTH_AXIS_DIR=UP_DOWN
		ENERGY=70.00
		NOMINAL_DMAX=40.00
		SSD=2500.00
		SCD=1000.00
		BLOCK=0
		WEDGE_ANGLE=0.00
		FIELD_INPLANE=100.00
		FIELD_CROSSPLANE=100.00
		FIELD_TYPE=RECTANGULAR
		GANTRY=270.00
		GANTRY_UPRIGHT_POSITION=0
		GANTRY_ROTATION=CW
		COLL_ANGLE=0.00
		COLL_OFFSET_INPLANE=0.00
		COLL_OFFSET_CROSSPLANE=0.00
		SCAN_DEVICE=MP3
		SCAN_DEVICE_SETUP=BARA_LEFT_RIGHT
		ELECTROMETER=TANDEM_XDR
		RANGE_FIELD=HIGH
		RANGE_REFERENCE=AUTO
		DETECTOR=PLANE_PARALLEL_CHAMBER
		DETECTOR_RADIUS=0.00
		DETECTOR_NAME=PTW 34070 Bragg-Peak
		DETECTOR_SN=0000
		DETECTOR_CALIBRATION=1100000000.00
		DETECTOR_IS_CALIBRATED=0
		DETECTOR_REFERENCE=PLANE_PARALLEL_CHAMBER
		DETECTOR_REFERENCE_RADIUS=0.00
		DETECTOR_REFERENCE_NAME=PTW 34070 Bragg-Peak
		DETECTOR_REFERENCE_SN=0000
		DETECTOR_REFERENCE_IS_CALIBRATED=0
		DETECTOR_REFERENCE_CALIBRATION=1100000000.00
		DETECTOR_HV=400.0
		DETECTOR_REFERENCE_HV=400.0
		FILTER=FF
		REF_FIELD_DEPTH=0.00
		REF_FIELD_DEFINED=ISOCENTER
		REF_FIELD_INPLANE=40.00
		REF_FIELD_CROSSPLANE=40.00
		REF_SCAN_POSITIONS=0.00;0.10;0.20;0.30;0.40;0.50;0.60;0.70;0.80;0.90;1.00;1.10;1.20;1.30;1.40;1.50;1.60;1.70;1.80;1.90;2.00;2.10;2.20;2.30;2.40;2.50;2.60;2.70;2.80;2.90;3.00;3.10;3.20;3.30;3.40;3.50;3.60;3.70;3.80;3.90;4.00;4.10;4.20;4.30;4.40;4.50;4.60;4.70;4.80;4.90;5.00;5.10;5.20;5.30;5.40;5.50;5.60;5.70;5.80;5.90;6.00;6.10;6.20;6.30;6.40;6.50;6.60;6.70;6.80;6.90;7.00;7.10;7.20;7.30;7.40;7.50;7.60;7.70;7.80;7.90;8.00;8.10;8.20;8.30;8.40;8.50;8.60;8.70;8.80;8.90;9.00;9.10;9.20;9.30;9.40;9.50;9.60;9.70;9.80;9.90;10.00;10.10;10.20;10.30;10.40;10.50;10.60;10.70;10.80;10.90;11.00;11.10;11.20;11.30;11.40;11.50;11.60;11.70;11.80;11.90;12.00;12.10;12.20;12.30;12.40;12.50;12.60;12.70;12.80;12.90;13.00;13.10;13.20;13.30;13.40;13.50;13.60;13.70;13.80;13.90;14.00;14.10;14.20;14.30;14.40;14.50;14.60;14.70;14.80;14.90;15.00;15.10;15.20;15.30;15.40;15.50;15.60;15.70;15.80;15.90;16.00;16.10;16.20;16.30;16.40;16.50;16.60;16.70;16.80;16.90;17.00;17.10;17.20;17.30;17.40;17.50;17.60;17.70;17.80;17.90;18.00;18.10;18.20;18.30;18.40;18.50;18.60;18.70;18.80;18.90;19.00;19.10;19.20;19.30;19.40;19.50;19.60;19.70;19.80;19.90;20.00;
		SCAN_CURVETYPE=PDD
		SCAN_OFFAXIS_INPLANE=0.00
		SCAN_OFFAXIS_CROSSPLANE=0.00
		SCAN_ANGLE=0.00
		SCAN_DIAGONAL=NOT_DIAGONAL
		SCAN_DIRECTION=NEGATIVE
		MEAS_MEDIUM=WATER
		MEAS_PRESET=REFERENCE_DOSEMETER
		MEAS_TIME=0.100
		MEAS_UNIT=A.U.
		SCAN_SPEEDS=50.00; 1.00;150.00; 16.00;999.00; 50.00;
		DELAY_TIMES=50.00; 0.800;150.00; 0.400;999.90; 0.000;
		PRESSURE=1013.25
		TEMPERATURE=20.00
		NORM_TEMPERATURE=20.00
		CORRECTION_FACTOR=1.0000
		EXPECTED_MAX_DOSE_RATE=8.00
		BEGIN_DATA
			0		0.359
			0.106		0.358
			0.213		0.358
			0.319		0.358
			0.425		0.358
			0.531		0.358
			0.638		0.358
			0.744		0.358
			0.85		0.358
			0.956		0.358
			1.063		0.358
			1.169		0.358
			1.275		0.358
			1.381		0.358
			1.488		0.358
			1.594		0.358
			1.7		0.358
			1.806		0.358
			1.913		0.358
			2.019		0.358
			2.125		0.358
			2.231		0.358
			2.338		0.358
			2.444		0.358
			2.55		0.358
			2.656		0.358
			2.763		0.358
			2.869		0.358
			2.975		0.358
			3.081		0.359
			3.188		0.359
			3.294		0.359
			3.4		0.359
			3.506		0.359
			3.613		0.359
			3.719		0.359
			3.825		0.359
			3.931		0.36
			4.038		0.36
			4.144		0.36
			4.25		0.36
			4.356		0.36
			4.463		0.36
			4.569		0.361
			4.675		0.361
			4.781		0.361
			4.888		0.361
			4.994		0.361
			5.1		0.362
			5.206		0.362
			5.313		0.362
			5.419		0.362
			5.525		0.363
			5.631		0.363
			5.738		0.363
			5.844		0.363
			5.95		0.364
			6.056		0.364
			6.163		0.364
			6.269		0.365
			6.375		0.365
			6.481		0.365
			6.588		0.365
			6.694		0.366
			6.8		0.366
			6.906		0.366
			7.013		0.367
			7.119		0.367
			7.225		0.367
			7.331		0.368
			7.438		0.368
			7.544		0.369
			7.65		0.369
			7.756		0.369
			7.863		0.37
			7.969		0.37
			8.075		0.37
			8.181		0.371
			8.288		0.371
			8.394		0.372
			8.5		0.372
			8.606		0.372
			8.713		0.373
			8.819		0.373
			8.925		0.374
			9.031		0.374
			9.138		0.375
			9.244		0.375
			9.35		0.376
			9.456		0.376
			9.563		0.377
			9.669		0.377
			9.775		0.377
			9.881		0.378
			9.988		0.379
			10.094		0.379
			10.2		0.38
			10.307		0.38
			10.413		0.381
			10.519		0.381
			10.625		0.382
			10.731		0.382
			10.838		0.383
			10.944		0.383
			11.05		0.384
			11.156		0.384
			11.263		0.385
			11.369		0.386
			11.475		0.386
			11.582		0.387
			11.688		0.387
			11.794		0.388
			11.9		0.389
			12.007		0.389
			12.113		0.39
			12.219		0.391
			12.325		0.391
			12.432		0.392
			12.538		0.393
			12.644		0.393
			12.75		0.394
			12.857		0.395
			12.963		0.395
			13.069		0.396
			13.175		0.397
			13.282		0.397
			13.388		0.398
			13.494		0.399
			13.6		0.4
			13.707		0.4
			13.813		0.401
			13.919		0.402
			14.025		0.402
			14.132		0.403
			14.238		0.404
			14.344		0.405
			14.45		0.406
			14.557		0.406
			14.663		0.407
			14.769		0.408
			14.875		0.409
			14.982		0.41
			15.088		0.41
			15.194		0.411
			15.3		0.412
			15.407		0.413
			15.513		0.414
			15.619		0.415
			15.725		0.416
			15.832		0.416
			15.938		0.417
			16.044		0.418
			16.15		0.419
			16.257		0.42
			16.363		0.421
			16.469		0.422
			16.575		0.423
			16.682		0.424
			16.788		0.425
			16.894		0.425
			17		0.426
			17.107		0.427
			17.213		0.428
			17.319		0.429
			17.425		0.43
			17.532		0.431
			17.638		0.432
			17.744		0.433
			17.85		0.434
			17.957		0.435
			18.063		0.436
			18.169		0.437
			18.275		0.438
			18.382		0.439
			18.488		0.44
			18.594		0.441
			18.7		0.442
			18.807		0.444
			18.913		0.445
			19.019		0.446
			19.125		0.447
			19.232		0.448
			19.338		0.449
			19.444		0.45
			19.551		0.451
			19.657		0.452
			19.763		0.453
			19.869		0.455
			19.976		0.456
			20.082		0.457
			20.188		0.458
			20.294		0.459
			20.4		0.46
			20.507		0.462
			20.613		0.463
			20.719		0.464
			20.826		0.465
			20.932		0.466
			21.038		0.468
			21.144		0.469
			21.25		0.47
			21.357		0.471
			21.463		0.472
			21.569		0.474
			21.676		0.475
			21.782		0.476
			21.888		0.477
			21.994		0.479
			22.101		0.48
			22.207		0.481
			22.313		0.483
			22.419		0.484
			22.525		0.485
			22.632		0.487
			22.738		0.488
			22.844		0.489
			22.951		0.491
			23.057		0.492
			23.163		0.493
			23.269		0.495
			23.376		0.496
			23.482		0.497
			23.588		0.499
			23.694		0.5
			23.801		0.502
			23.907		0.503
			24.013		0.504
			24.119		0.506
			24.226		0.507
			24.332		0.509
			24.438		0.51
			24.544		0.512
			24.651		0.513
			24.757		0.515
			24.863		0.516
			24.969		0.518
			25.076		0.519
			25.182		0.521
			25.288		0.522
			25.394		0.524
			25.501		0.525
			25.607		0.527
			25.713		0.528
			25.819		0.53
			25.926		0.532
			26.032		0.533
			26.138		0.535
			26.244		0.536
			26.351		0.538
			26.457		0.54
			26.563		0.541
			26.669		0.543
			26.776		0.545
			26.882		0.546
			26.988		0.548
			27.094		0.55
			27.201		0.551
			27.307		0.553
			27.413		0.555
			27.519		0.557
			27.626		0.558
			27.732		0.56
			27.838		0.562
			27.944		0.564
			28.051		0.566
			28.157		0.568
			28.263		0.569
			28.369		0.571
			28.476		0.573
			28.582		0.575
			28.688		0.577
			28.794		0.579
			28.901		0.581
			29.007		0.583
			29.113		0.585
			29.219		0.587
			29.326		0.589
			29.432		0.591
			29.538		0.593
			29.644		0.595
			29.751		0.597
			29.857		0.6
			29.963		0.602
			30.069		0.604
			30.176		0.606
			30.282		0.609
			30.388		0.611
			30.494		0.613
			30.601		0.616
			30.707		0.618
			30.813		0.62
			30.92		0.623
			31.026		0.625
			31.132		0.628
			31.238		0.631
			31.344		0.633
			31.451		0.636
			31.557		0.639
			31.663		0.641
			31.77		0.644
			31.876		0.647
			31.982		0.65
			32.088		0.653
			32.194		0.656
			32.301		0.659
			32.407		0.662
			32.513		0.666
			32.619		0.669
			32.726		0.672
			32.832		0.676
			32.938		0.679
			33.044		0.683
			33.151		0.687
			33.257		0.69
			33.363		0.694
			33.47		0.698
			33.576		0.702
			33.682		0.707
			33.788		0.711
			33.895		0.715
			34.001		0.72
			34.107		0.725
			34.213		0.729
			34.32		0.734
			34.426		0.74
			34.532		0.745
			34.638		0.75
			34.745		0.756
			34.851		0.762
			34.957		0.768
			35.063		0.774
			35.17		0.781
			35.276		0.788
			35.382		0.795
			35.488		0.802
			35.595		0.81
			35.701		0.817
			35.807		0.826
			35.913		0.834
			36.02		0.843
			36.126		0.852
			36.232		0.862
			36.338		0.872
			36.445		0.883
			36.551		0.894
			36.657		0.905
			36.763		0.917
			36.87		0.93
			36.976		0.943
			37.082		0.957
			37.188		0.972
			37.295		0.988
			37.401		1.004
			37.507		1.022
			37.613		1.04
			37.72		1.06
			37.826		1.08
			37.932		1.102
			38.038		1.124
			38.145		1.148
			38.251		1.172
			38.357		1.197
			38.463		1.223
			38.57		1.249
			38.676		1.276
			38.782		1.302
			38.888		1.327
			38.995		1.352
			39.101		1.375
			39.207		1.395
			39.313		1.414
			39.42		1.428
			39.526		1.439
			39.632		1.446
			39.738		1.447
			39.845		1.443
			39.951		1.433
			40.057		1.417
			40.163		1.394
			40.27		1.365
			40.376		1.329
			40.482		1.288
			40.589		1.24
			40.695		1.187
			40.801		1.13
			40.907		1.069
			41.014		1.004
			41.12		0.938
			41.226		0.87
			41.332		0.801
			41.438		0.733
			41.545		0.666
			41.651		0.601
			41.757		0.539
			41.863		0.48
			41.97		0.424
			42.076		0.372
			42.182		0.325
			42.289		0.281
			42.395		0.242
			42.501		0.207
			42.607		0.176
			42.714		0.149
			42.82		0.125
			42.926		0.105
			43.032		0.088
			43.139		0.073
			43.245		0.061
			43.351		0.051
			43.457		0.042
			43.563		0.035
			43.67		0.029
			43.776		0.025
			43.882		0.021
			43.988		0.018
			44.095		0.016
			44.201		0.014
			44.307		0.012
			44.414		0.011
			44.52		0.01
			44.626		0.009
			44.732		0.008
			44.839		0.008
			44.945		0.007
			45.051		0.007
			45.157		0.006
			45.264		0.006
			45.37		0.006
			45.476		0.005
			45.582		0.005
			45.689		0.005
			45.795		0.004
			45.901		0.004
			46.007		0.004
			46.114		0.004
			46.22		0.004
			46.326		0.003
			46.432		0.003
			46.539		0.003
			46.645		0.003
			46.751		0.003
			46.857		0.002
			46.964		0.002
			47.07		0.002
			47.176		0.002
			47.282		0.002
			47.389		0.002
			47.495		0.002
			47.601		0.002
			47.707		0.001
			47.814		0.001
			47.92		0.001
			48.026		0.001
			48.132		0.001
			48.239		0.001
			48.345		0.001
			48.451		0.001
			48.557		0.001
			48.664		0.001
			48.77		0.001
			48.876		0.001
			48.982		0.001
			49.089		0.001
			49.195		0.001
			49.301		0
			49.407		0
			49.514		0
			49.62		0
			49.726		0
			49.832		0
			49.939		0
			50.045		0
			50.151		0
			50.257		0
			50.364		0
			50.47		0
			50.576		0
			50.682		0
			50.789		0
			50.895		0
			51.001		0
			51.107		0
			51.214		0
			51.32		0
			51.426		0
			51.533		0
			51.639		0
			51.745		0
			51.851		0
			51.958		0
			52.064		0
			52.17		0
			52.276		0
			52.382		0
			52.489		0
			52.595		0
			52.701		0
			52.807		0
			52.914		0
			53.02		0
		END_DATA
	END_SCAN  1
END_SCAN_DATA
