BEGIN_SCAN_DATA
	FORMAT=CC-Export V1.9                  
	FILE_CREATION_DATE=15-Aug-2018 12:02:37
	LAST_MODIFIED=15-Aug-2018 12:02:37
	BEGIN_SCAN  1
		TASK_NAME=tba PDD Profiles
		PROGRAM=tbaScan
		MEAS_DATE=15-Aug-2018 11:59:34
		LINAC=VARIAN PT
		MODALITY=P
		ISOCENTER=2500.00
		INPLANE_AXIS=Inplane
		CROSSPLANE_AXIS=Crossplane
		DEPTH_AXIS=Depth
		INPLANE_AXIS_DIR=GUN_TARGET
		CROSSPLANE_AXIS_DIR=LEFT_RIGHT
		DEPTH_AXIS_DIR=UP_DOWN
		ENERGY=75.00
		NOMINAL_DMAX=40.00
		SSD=2500.00
		SCD=1000.00
		BLOCK=0
		WEDGE_ANGLE=0.00
		FIELD_INPLANE=100.00
		FIELD_CROSSPLANE=100.00
		FIELD_TYPE=RECTANGULAR
		GANTRY=270.00
		GANTRY_UPRIGHT_POSITION=0
		GANTRY_ROTATION=CW
		COLL_ANGLE=0.00
		COLL_OFFSET_INPLANE=0.00
		COLL_OFFSET_CROSSPLANE=0.00
		SCAN_DEVICE=MP3
		SCAN_DEVICE_SETUP=BARA_LEFT_RIGHT
		ELECTROMETER=TANDEM_XDR
		RANGE_FIELD=HIGH
		RANGE_REFERENCE=AUTO
		DETECTOR=PLANE_PARALLEL_CHAMBER
		DETECTOR_RADIUS=0.00
		DETECTOR_NAME=PTW 34070 Bragg-Peak
		DETECTOR_SN=0000
		DETECTOR_CALIBRATION=1100000000.00
		DETECTOR_IS_CALIBRATED=0
		DETECTOR_REFERENCE=PLANE_PARALLEL_CHAMBER
		DETECTOR_REFERENCE_RADIUS=0.00
		DETECTOR_REFERENCE_NAME=PTW 34070 Bragg-Peak
		DETECTOR_REFERENCE_SN=0000
		DETECTOR_REFERENCE_IS_CALIBRATED=0
		DETECTOR_REFERENCE_CALIBRATION=1100000000.00
		DETECTOR_HV=400.0
		DETECTOR_REFERENCE_HV=400.0
		FILTER=FF
		REF_FIELD_DEPTH=0.00
		REF_FIELD_DEFINED=ISOCENTER
		REF_FIELD_INPLANE=40.00
		REF_FIELD_CROSSPLANE=40.00
		REF_SCAN_POSITIONS=0.00;0.10;0.20;0.30;0.40;0.50;0.60;0.70;0.80;0.90;1.00;1.10;1.20;1.30;1.40;1.50;1.60;1.70;1.80;1.90;2.00;2.10;2.20;2.30;2.40;2.50;2.60;2.70;2.80;2.90;3.00;3.10;3.20;3.30;3.40;3.50;3.60;3.70;3.80;3.90;4.00;4.10;4.20;4.30;4.40;4.50;4.60;4.70;4.80;4.90;5.00;5.10;5.20;5.30;5.40;5.50;5.60;5.70;5.80;5.90;6.00;6.10;6.20;6.30;6.40;6.50;6.60;6.70;6.80;6.90;7.00;7.10;7.20;7.30;7.40;7.50;7.60;7.70;7.80;7.90;8.00;8.10;8.20;8.30;8.40;8.50;8.60;8.70;8.80;8.90;9.00;9.10;9.20;9.30;9.40;9.50;9.60;9.70;9.80;9.90;10.00;10.10;10.20;10.30;10.40;10.50;10.60;10.70;10.80;10.90;11.00;11.10;11.20;11.30;11.40;11.50;11.60;11.70;11.80;11.90;12.00;12.10;12.20;12.30;12.40;12.50;12.60;12.70;12.80;12.90;13.00;13.10;13.20;13.30;13.40;13.50;13.60;13.70;13.80;13.90;14.00;14.10;14.20;14.30;14.40;14.50;14.60;14.70;14.80;14.90;15.00;15.10;15.20;15.30;15.40;15.50;15.60;15.70;15.80;15.90;16.00;16.10;16.20;16.30;16.40;16.50;16.60;16.70;16.80;16.90;17.00;17.10;17.20;17.30;17.40;17.50;17.60;17.70;17.80;17.90;18.00;18.10;18.20;18.30;18.40;18.50;18.60;18.70;18.80;18.90;19.00;19.10;19.20;19.30;19.40;19.50;19.60;19.70;19.80;19.90;20.00;
		SCAN_CURVETYPE=PDD
		SCAN_OFFAXIS_INPLANE=0.00
		SCAN_OFFAXIS_CROSSPLANE=0.00
		SCAN_ANGLE=0.00
		SCAN_DIAGONAL=NOT_DIAGONAL
		SCAN_DIRECTION=NEGATIVE
		MEAS_MEDIUM=WATER
		MEAS_PRESET=REFERENCE_DOSEMETER
		MEAS_TIME=0.100
		MEAS_UNIT=A.U.
		SCAN_SPEEDS=50.00; 1.00;150.00; 16.00;999.00; 50.00;
		DELAY_TIMES=50.00; 0.800;150.00; 0.400;999.90; 0.000;
		PRESSURE=1013.25
		TEMPERATURE=20.00
		NORM_TEMPERATURE=20.00
		CORRECTION_FACTOR=1.0000
		EXPECTED_MAX_DOSE_RATE=8.00
		BEGIN_DATA
			0		0.359
			0.117		0.359
			0.235		0.359
			0.352		0.359
			0.469		0.359
			0.586		0.358
			0.704		0.358
			0.821		0.358
			0.938		0.358
			1.055		0.358
			1.173		0.358
			1.29		0.358
			1.407		0.358
			1.525		0.358
			1.642		0.358
			1.759		0.358
			1.876		0.358
			1.994		0.358
			2.111		0.358
			2.228		0.358
			2.345		0.358
			2.463		0.358
			2.58		0.358
			2.697		0.358
			2.815		0.358
			2.932		0.358
			3.049		0.358
			3.166		0.358
			3.284		0.358
			3.401		0.359
			3.518		0.359
			3.636		0.359
			3.753		0.359
			3.87		0.359
			3.987		0.359
			4.105		0.359
			4.222		0.359
			4.339		0.359
			4.456		0.36
			4.574		0.36
			4.691		0.36
			4.808		0.36
			4.926		0.36
			5.043		0.36
			5.16		0.36
			5.277		0.361
			5.395		0.361
			5.512		0.361
			5.629		0.361
			5.746		0.361
			5.864		0.362
			5.981		0.362
			6.098		0.362
			6.216		0.362
			6.333		0.363
			6.45		0.363
			6.567		0.363
			6.685		0.363
			6.802		0.363
			6.919		0.364
			7.036		0.364
			7.154		0.364
			7.271		0.365
			7.388		0.365
			7.506		0.365
			7.623		0.365
			7.74		0.366
			7.857		0.366
			7.975		0.366
			8.092		0.367
			8.209		0.367
			8.326		0.367
			8.444		0.368
			8.561		0.368
			8.678		0.368
			8.796		0.369
			8.913		0.369
			9.03		0.369
			9.147		0.37
			9.265		0.37
			9.382		0.37
			9.499		0.371
			9.617		0.371
			9.734		0.372
			9.851		0.372
			9.968		0.372
			10.086		0.373
			10.203		0.373
			10.32		0.374
			10.437		0.374
			10.555		0.375
			10.672		0.375
			10.789		0.375
			10.906		0.376
			11.024		0.376
			11.141		0.377
			11.258		0.377
			11.376		0.378
			11.493		0.378
			11.61		0.379
			11.727		0.379
			11.845		0.38
			11.962		0.38
			12.079		0.381
			12.197		0.381
			12.314		0.382
			12.431		0.382
			12.548		0.383
			12.666		0.383
			12.783		0.384
			12.9		0.385
			13.017		0.385
			13.135		0.386
			13.252		0.386
			13.369		0.387
			13.487		0.387
			13.604		0.388
			13.721		0.389
			13.838		0.389
			13.956		0.39
			14.073		0.391
			14.19		0.391
			14.307		0.392
			14.425		0.392
			14.542		0.393
			14.659		0.394
			14.777		0.394
			14.894		0.395
			15.011		0.396
			15.128		0.396
			15.246		0.397
			15.363		0.398
			15.48		0.398
			15.597		0.399
			15.715		0.4
			15.832		0.401
			15.949		0.401
			16.067		0.402
			16.184		0.403
			16.301		0.404
			16.418		0.404
			16.536		0.405
			16.653		0.406
			16.77		0.407
			16.888		0.407
			17.005		0.408
			17.122		0.409
			17.239		0.41
			17.357		0.411
			17.474		0.411
			17.591		0.412
			17.708		0.413
			17.826		0.414
			17.943		0.415
			18.06		0.416
			18.178		0.416
			18.295		0.417
			18.412		0.418
			18.529		0.419
			18.647		0.42
			18.764		0.421
			18.881		0.422
			18.999		0.423
			19.116		0.423
			19.233		0.424
			19.35		0.425
			19.468		0.426
			19.585		0.427
			19.702		0.428
			19.819		0.429
			19.937		0.43
			20.054		0.431
			20.171		0.432
			20.288		0.433
			20.406		0.434
			20.523		0.435
			20.64		0.436
			20.758		0.437
			20.875		0.438
			20.992		0.439
			21.109		0.44
			21.227		0.441
			21.344		0.442
			21.461		0.443
			21.579		0.444
			21.696		0.445
			21.813		0.446
			21.93		0.447
			22.048		0.448
			22.165		0.449
			22.282		0.45
			22.399		0.451
			22.517		0.453
			22.634		0.454
			22.751		0.455
			22.868		0.456
			22.986		0.457
			23.103		0.458
			23.22		0.459
			23.338		0.46
			23.455		0.462
			23.572		0.463
			23.69		0.464
			23.807		0.465
			23.924		0.466
			24.041		0.467
			24.159		0.469
			24.276		0.47
			24.393		0.471
			24.51		0.472
			24.628		0.473
			24.745		0.475
			24.862		0.476
			24.979		0.477
			25.097		0.478
			25.214		0.48
			25.331		0.481
			25.449		0.482
			25.566		0.483
			25.683		0.485
			25.8		0.486
			25.918		0.487
			26.035		0.489
			26.152		0.49
			26.27		0.491
			26.387		0.493
			26.504		0.494
			26.621		0.495
			26.739		0.497
			26.856		0.498
			26.973		0.499
			27.09		0.501
			27.208		0.502
			27.325		0.503
			27.442		0.505
			27.559		0.506
			27.677		0.508
			27.794		0.509
			27.911		0.511
			28.029		0.512
			28.146		0.513
			28.263		0.515
			28.38		0.516
			28.498		0.518
			28.615		0.519
			28.732		0.521
			28.85		0.522
			28.967		0.524
			29.084		0.525
			29.201		0.527
			29.319		0.528
			29.436		0.53
			29.553		0.531
			29.67		0.533
			29.788		0.534
			29.905		0.536
			30.022		0.538
			30.14		0.539
			30.257		0.541
			30.374		0.542
			30.491		0.544
			30.609		0.546
			30.726		0.547
			30.843		0.549
			30.961		0.551
			31.078		0.552
			31.195		0.554
			31.312		0.556
			31.43		0.558
			31.547		0.559
			31.664		0.561
			31.781		0.563
			31.899		0.565
			32.016		0.566
			32.133		0.568
			32.25		0.57
			32.368		0.572
			32.485		0.574
			32.602		0.576
			32.72		0.578
			32.837		0.579
			32.954		0.581
			33.071		0.583
			33.189		0.585
			33.306		0.587
			33.423		0.589
			33.541		0.591
			33.658		0.594
			33.775		0.596
			33.892		0.598
			34.01		0.6
			34.127		0.602
			34.244		0.604
			34.361		0.606
			34.479		0.609
			34.596		0.611
			34.713		0.613
			34.831		0.616
			34.948		0.618
			35.065		0.621
			35.182		0.623
			35.3		0.626
			35.417		0.628
			35.534		0.631
			35.652		0.633
			35.769		0.636
			35.886		0.639
			36.003		0.642
			36.121		0.644
			36.238		0.647
			36.355		0.65
			36.472		0.653
			36.59		0.656
			36.707		0.659
			36.824		0.663
			36.942		0.666
			37.059		0.669
			37.176		0.673
			37.293		0.676
			37.411		0.68
			37.528		0.683
			37.645		0.687
			37.762		0.691
			37.88		0.695
			37.997		0.699
			38.114		0.703
			38.231		0.707
			38.349		0.711
			38.466		0.716
			38.583		0.721
			38.701		0.725
			38.818		0.73
			38.935		0.735
			39.052		0.74
			39.17		0.746
			39.287		0.751
			39.404		0.757
			39.521		0.763
			39.639		0.769
			39.756		0.775
			39.873		0.782
			39.991		0.788
			40.108		0.795
			40.225		0.803
			40.342		0.81
			40.46		0.818
			40.577		0.826
			40.694		0.834
			40.812		0.843
			40.929		0.852
			41.046		0.861
			41.163		0.871
			41.281		0.881
			41.398		0.892
			41.515		0.903
			41.632		0.915
			41.75		0.927
			41.867		0.94
			41.984		0.954
			42.102		0.968
			42.219		0.983
			42.336		0.999
			42.453		1.015
			42.571		1.033
			42.688		1.051
			42.805		1.071
			42.923		1.092
			43.04		1.113
			43.157		1.136
			43.274		1.16
			43.392		1.184
			43.509		1.209
			43.626		1.235
			43.743		1.262
			43.861		1.288
			43.978		1.314
			44.095		1.339
			44.213		1.363
			44.33		1.386
			44.447		1.406
			44.564		1.423
			44.682		1.436
			44.799		1.446
			44.916		1.45
			45.033		1.45
			45.151		1.443
			45.268		1.43
			45.385		1.411
			45.502		1.385
			45.62		1.353
			45.737		1.314
			45.854		1.27
			45.972		1.219
			46.089		1.163
			46.206		1.103
			46.323		1.039
			46.441		0.973
			46.558		0.905
			46.675		0.835
			46.792		0.766
			46.91		0.698
			47.027		0.631
			47.144		0.567
			47.262		0.506
			47.379		0.448
			47.496		0.394
			47.613		0.344
			47.731		0.298
			47.848		0.257
			47.965		0.22
			48.083		0.187
			48.2		0.159
			48.317		0.134
			48.434		0.112
			48.552		0.093
			48.669		0.078
			48.786		0.065
			48.903		0.054
			49.021		0.045
			49.138		0.037
			49.255		0.031
			49.373		0.026
			49.49		0.022
			49.607		0.019
			49.724		0.016
			49.842		0.014
			49.959		0.013
			50.076		0.011
			50.194		0.01
			50.311		0.009
			50.428		0.008
			50.545		0.008
			50.663		0.007
			50.78		0.007
			50.897		0.006
			51.014		0.006
			51.132		0.005
			51.249		0.005
			51.366		0.005
			51.484		0.004
			51.601		0.004
			51.718		0.004
			51.835		0.004
			51.953		0.003
			52.07		0.003
			52.187		0.003
			52.304		0.003
			52.422		0.003
			52.539		0.002
			52.656		0.002
			52.773		0.002
			52.891		0.002
			53.008		0.002
			53.125		0.002
			53.243		0.002
			53.36		0.001
			53.477		0.001
			53.595		0.001
			53.712		0.001
			53.829		0.001
			53.946		0.001
			54.064		0.001
			54.181		0.001
			54.298		0.001
			54.415		0.001
			54.533		0.001
			54.65		0.001
			54.767		0.001
			54.884		0
			55.002		0
			55.119		0
			55.236		0
			55.354		0
			55.471		0
			55.588		0
			55.705		0
			55.823		0
			55.94		0
			56.057		0
			56.174		0
			56.292		0
			56.409		0
			56.526		0
			56.644		0
			56.761		0
			56.878		0
			56.995		0
			57.113		0
			57.23		0
			57.347		0
			57.465		0
			57.582		0
			57.699		0
			57.816		0
			57.934		0
			58.051		0
			58.168		0
			58.285		0
			58.403		0
			58.52		0		
		END_DATA
	END_SCAN  1
END_SCAN_DATA
