BEGIN_SCAN_DATA
	FORMAT=CC-Export V1.9                  
	FILE_CREATION_DATE=15-Aug-2018 12:43:40
	LAST_MODIFIED=15-Aug-2018 12:43:40
	BEGIN_SCAN  1
		TASK_NAME=tba PDD Profiles
		PROGRAM=tbaScan
		MEAS_DATE=15-Aug-2018 12:41:50
		LINAC=VARIAN PT
		MODALITY=P
		ISOCENTER=2500.00
		INPLANE_AXIS=Inplane
		CROSSPLANE_AXIS=Crossplane
		DEPTH_AXIS=Depth
		INPLANE_AXIS_DIR=GUN_TARGET
		CROSSPLANE_AXIS_DIR=LEFT_RIGHT
		DEPTH_AXIS_DIR=UP_DOWN
		ENERGY=80.00
		NOMINAL_DMAX=52.00
		SSD=2500.00
		SCD=1000.00
		BLOCK=0
		WEDGE_ANGLE=0.00
		FIELD_INPLANE=100.00
		FIELD_CROSSPLANE=100.00
		FIELD_TYPE=RECTANGULAR
		GANTRY=270.00
		GANTRY_UPRIGHT_POSITION=0
		GANTRY_ROTATION=CW
		COLL_ANGLE=0.00
		COLL_OFFSET_INPLANE=0.00
		COLL_OFFSET_CROSSPLANE=0.00
		SCAN_DEVICE=MP3
		SCAN_DEVICE_SETUP=BARA_LEFT_RIGHT
		ELECTROMETER=TANDEM_XDR
		RANGE_FIELD=HIGH
		RANGE_REFERENCE=AUTO
		DETECTOR=PLANE_PARALLEL_CHAMBER
		DETECTOR_RADIUS=0.00
		DETECTOR_NAME=PTW 34070 Bragg-Peak
		DETECTOR_SN=0000
		DETECTOR_CALIBRATION=1100000000.00
		DETECTOR_IS_CALIBRATED=0
		DETECTOR_REFERENCE=PLANE_PARALLEL_CHAMBER
		DETECTOR_REFERENCE_RADIUS=0.00
		DETECTOR_REFERENCE_NAME=PTW 34070 Bragg-Peak
		DETECTOR_REFERENCE_SN=0000
		DETECTOR_REFERENCE_IS_CALIBRATED=0
		DETECTOR_REFERENCE_CALIBRATION=1100000000.00
		DETECTOR_HV=400.0
		DETECTOR_REFERENCE_HV=400.0
		FILTER=FF
		REF_FIELD_DEPTH=0.00
		REF_FIELD_DEFINED=ISOCENTER
		REF_FIELD_INPLANE=40.00
		REF_FIELD_CROSSPLANE=40.00
		REF_SCAN_POSITIONS=0.00;0.50;1.00;1.50;2.00;2.50;3.00;3.50;4.00;4.50;5.00;5.50;6.00;6.50;7.00;7.50;8.00;8.50;9.00;9.50;10.00;10.50;11.00;11.50;12.00;12.50;13.00;13.50;14.00;14.50;15.00;15.50;16.00;16.50;17.00;17.50;18.00;18.50;19.00;19.50;20.00;20.50;21.00;21.50;22.00;22.50;23.00;23.50;24.00;24.50;25.00;25.50;26.00;26.50;27.00;27.50;28.00;28.50;29.00;29.50;30.00;
		SCAN_CURVETYPE=PDD
		SCAN_OFFAXIS_INPLANE=0.00
		SCAN_OFFAXIS_CROSSPLANE=0.00
		SCAN_ANGLE=0.00
		SCAN_DIAGONAL=NOT_DIAGONAL
		SCAN_DIRECTION=NEGATIVE
		MEAS_MEDIUM=WATER
		MEAS_PRESET=REFERENCE_DOSEMETER
		MEAS_TIME=0.100
		MEAS_UNIT=A.U.
		SCAN_SPEEDS=50.00; 1.00;150.00; 16.00;999.00; 50.00;
		DELAY_TIMES=50.00; 0.800;150.00; 0.400;999.90; 0.000;
		PRESSURE=1013.25
		TEMPERATURE=20.00
		NORM_TEMPERATURE=20.00
		CORRECTION_FACTOR=1.0000
		EXPECTED_MAX_DOSE_RATE=8.00
		BEGIN_DATA
			0		0.359
			0.128		0.359
			0.257		0.359
			0.385		0.359
			0.513		0.359
			0.641		0.359
			0.77		0.359
			0.898		0.359
			1.026		0.359
			1.155		0.359
			1.283		0.359
			1.411		0.358
			1.54		0.358
			1.668		0.358
			1.796		0.358
			1.924		0.358
			2.053		0.358
			2.181		0.358
			2.309		0.358
			2.438		0.358
			2.566		0.358
			2.694		0.358
			2.823		0.358
			2.951		0.358
			3.079		0.358
			3.207		0.358
			3.336		0.359
			3.464		0.359
			3.592		0.359
			3.721		0.359
			3.849		0.359
			3.977		0.359
			4.105		0.359
			4.234		0.359
			4.362		0.359
			4.49		0.359
			4.619		0.359
			4.747		0.359
			4.875		0.36
			5.004		0.36
			5.132		0.36
			5.26		0.36
			5.388		0.36
			5.517		0.36
			5.645		0.36
			5.773		0.361
			5.902		0.361
			6.03		0.361
			6.158		0.361
			6.287		0.361
			6.415		0.361
			6.543		0.362
			6.671		0.362
			6.8		0.362
			6.928		0.362
			7.056		0.362
			7.185		0.363
			7.313		0.363
			7.441		0.363
			7.569		0.363
			7.698		0.364
			7.826		0.364
			7.954		0.364
			8.083		0.364
			8.211		0.365
			8.339		0.365
			8.468		0.365
			8.596		0.365
			8.724		0.366
			8.852		0.366
			8.981		0.366
			9.109		0.367
			9.237		0.367
			9.366		0.367
			9.494		0.368
			9.622		0.368
			9.751		0.368
			9.879		0.369
			10.007		0.369
			10.135		0.369
			10.264		0.37
			10.392		0.37
			10.52		0.37
			10.649		0.371
			10.777		0.371
			10.905		0.371
			11.033		0.372
			11.162		0.372
			11.29		0.372
			11.418		0.373
			11.547		0.373
			11.675		0.374
			11.803		0.374
			11.932		0.375
			12.06		0.375
			12.188		0.375
			12.316		0.376
			12.445		0.376
			12.573		0.377
			12.701		0.377
			12.83		0.378
			12.958		0.378
			13.086		0.379
			13.215		0.379
			13.343		0.379
			13.471		0.38
			13.599		0.38
			13.728		0.381
			13.856		0.381
			13.984		0.382
			14.113		0.382
			14.241		0.383
			14.369		0.384
			14.498		0.384
			14.626		0.385
			14.754		0.385
			14.882		0.386
			15.011		0.386
			15.139		0.387
			15.267		0.387
			15.396		0.388
			15.524		0.389
			15.652		0.389
			15.781		0.39
			15.909		0.39
			16.037		0.391
			16.165		0.392
			16.294		0.392
			16.422		0.393
			16.55		0.393
			16.679		0.394
			16.807		0.395
			16.935		0.395
			17.063		0.396
			17.192		0.397
			17.32		0.397
			17.448		0.398
			17.577		0.399
			17.705		0.399
			17.833		0.4
			17.962		0.401
			18.09		0.401
			18.218		0.402
			18.346		0.403
			18.475		0.404
			18.603		0.404
			18.731		0.405
			18.86		0.406
			18.988		0.407
			19.116		0.407
			19.244		0.408
			19.373		0.409
			19.501		0.41
			19.629		0.41
			19.758		0.411
			19.886		0.412
			20.014		0.413
			20.143		0.414
			20.271		0.414
			20.399		0.415
			20.528		0.416
			20.656		0.417
			20.784		0.418
			20.912		0.418
			21.041		0.419
			21.169		0.42
			21.297		0.421
			21.426		0.422
			21.554		0.423
			21.682		0.424
			21.81		0.425
			21.939		0.425
			22.067		0.426
			22.195		0.427
			22.324		0.428
			22.452		0.429
			22.58		0.43
			22.708		0.431
			22.837		0.432
			22.965		0.433
			23.093		0.434
			23.222		0.435
			23.35		0.436
			23.478		0.437
			23.607		0.438
			23.735		0.438
			23.863		0.439
			23.992		0.44
			24.12		0.441
			24.248		0.442
			24.376		0.443
			24.505		0.444
			24.633		0.446
			24.761		0.447
			24.889		0.448
			25.018		0.449
			25.146		0.45
			25.274		0.451
			25.403		0.452
			25.531		0.453
			25.659		0.454
			25.788		0.455
			25.916		0.456
			26.044		0.457
			26.173		0.458
			26.301		0.459
			26.429		0.46
			26.557		0.462
			26.686		0.463
			26.814		0.464
			26.942		0.465
			27.071		0.466
			27.199		0.467
			27.327		0.468
			27.455		0.47
			27.584		0.471
			27.712		0.472
			27.84		0.473
			27.969		0.474
			28.097		0.475
			28.225		0.477
			28.354		0.478
			28.482		0.479
			28.61		0.48
			28.738		0.482
			28.867		0.483
			28.995		0.484
			29.123		0.485
			29.252		0.487
			29.38		0.488
			29.508		0.489
			29.636		0.49
			29.765		0.492
			29.893		0.493
			30.021		0.494
			30.15		0.495
			30.278		0.497
			30.406		0.498
			30.535		0.499
			30.663		0.501
			30.791		0.502
			30.92		0.503
			31.048		0.505
			31.176		0.506
			31.304		0.507
			31.433		0.509
			31.561		0.51
			31.689		0.512
			31.818		0.513
			31.946		0.514
			32.074		0.516
			32.202		0.517
			32.331		0.519
			32.459		0.52
			32.587		0.522
			32.716		0.523
			32.844		0.524
			32.972		0.526
			33.1		0.527
			33.229		0.529
			33.357		0.53
			33.485		0.532
			33.614		0.533
			33.742		0.535
			33.87		0.536
			33.999		0.538
			34.127		0.539
			34.255		0.541
			34.383		0.543
			34.512		0.544
			34.64		0.546
			34.768		0.547
			34.897		0.549
			35.025		0.551
			35.153		0.552
			35.282		0.554
			35.41		0.556
			35.538		0.557
			35.667		0.559
			35.795		0.561
			35.923		0.562
			36.051		0.564
			36.18		0.566
			36.308		0.568
			36.436		0.569
			36.564		0.571
			36.693		0.573
			36.821		0.575
			36.949		0.577
			37.078		0.579
			37.206		0.58
			37.334		0.582
			37.463		0.584
			37.591		0.586
			37.719		0.588
			37.847		0.59
			37.976		0.592
			38.104		0.594
			38.232		0.596
			38.361		0.598
			38.489		0.6
			38.617		0.603
			38.746		0.605
			38.874		0.607
			39.002		0.609
			39.131		0.612
			39.259		0.614
			39.387		0.616
			39.515		0.619
			39.644		0.621
			39.772		0.623
			39.9		0.626
			40.028		0.628
			40.157		0.631
			40.285		0.634
			40.413		0.636
			40.542		0.639
			40.67		0.642
			40.798		0.645
			40.927		0.648
			41.055		0.651
			41.183		0.654
			41.312		0.657
			41.44		0.66
			41.568		0.663
			41.696		0.666
			41.825		0.67
			41.953		0.673
			42.081		0.677
			42.21		0.68
			42.338		0.684
			42.466		0.688
			42.595		0.692
			42.723		0.696
			42.851		0.7
			42.979		0.704
			43.108		0.708
			43.236		0.713
			43.364		0.717
			43.493		0.722
			43.621		0.727
			43.749		0.732
			43.877		0.737
			44.006		0.742
			44.134		0.748
			44.262		0.753
			44.391		0.759
			44.519		0.765
			44.647		0.771
			44.776		0.777
			44.904		0.784
			45.032		0.791
			45.16		0.798
			45.289		0.805
			45.417		0.813
			45.545		0.82
			45.674		0.828
			45.802		0.837
			45.93		0.846
			46.058		0.855
			46.187		0.864
			46.315		0.874
			46.443		0.884
			46.572		0.895
			46.7		0.906
			46.828		0.917
			46.957		0.929
			47.085		0.942
			47.213		0.955
			47.341		0.969
			47.47		0.984
			47.598		1
			47.726		1.016
			47.855		1.033
			47.983		1.052
			48.111		1.071
			48.239		1.091
			48.368		1.112
			48.496		1.135
			48.624		1.158
			48.753		1.182
			48.881		1.207
			49.009		1.233
			49.138		1.259
			49.266		1.285
			49.394		1.311
			49.522		1.337
			49.651		1.361
			49.779		1.384
			49.907		1.404
			50.036		1.421
			50.164		1.435
			50.292		1.445
			50.421		1.45
			50.549		1.45
			50.677		1.444
			50.806		1.431
			50.934		1.412
			51.062		1.387
			51.19		1.354
			51.319		1.316
			51.447		1.271
			51.575		1.22
			51.703		1.164
			51.832		1.103
			51.96		1.039
			52.088		0.972
			52.217		0.903
			52.345		0.833
			52.473		0.763
			52.602		0.695
			52.73		0.627
			52.858		0.563
			52.986		0.501
			53.115		0.443
			53.243		0.389
			53.371		0.339
			53.5		0.294
			53.628		0.253
			53.756		0.216
			53.885		0.184
			54.013		0.155
			54.141		0.13
			54.27		0.109
			54.398		0.091
			54.526		0.076
			54.654		0.063
			54.783		0.052
			54.911		0.043
			55.039		0.036
			55.167		0.03
			55.296		0.025
			55.424		0.022
			55.552		0.018
			55.681		0.016
			55.809		0.014
			55.937		0.012
			56.066		0.011
			56.194		0.01
			56.322		0.009
			56.451		0.008
			56.579		0.007
			56.707		0.007
			56.835		0.006
			56.964		0.006
			57.092		0.005
			57.22		0.005
			57.349		0.005
			57.477		0.004
			57.605		0.004
			57.734		0.004
			57.862		0.003
			57.99		0.003
			58.118		0.003
			58.247		0.003
			58.375		0.002
			58.503		0.002
			58.632		0.002
			58.76		0.002
			58.888		0.002
			59.016		0.002
			59.145		0.002
			59.273		0.001
			59.401		0.001
			59.53		0.001
			59.658		0.001
			59.786		0.001
			59.915		0.001
			60.043		0.001
			60.171		0.001
			60.299		0.001
			60.428		0.001
			60.556		0.001
			60.684		0
			60.813		0
			60.941		0
			61.069		0
			61.197		0
			61.326		0
			61.454		0
			61.582		0
			61.711		0
			61.839		0
			61.967		0
			62.096		0
			62.224		0
			62.352		0
			62.48		0
			62.609		0
			62.737		0
			62.865		0
			62.994		0
			63.122		0
			63.25		0
			63.379		0
			63.507		0
			63.635		0
			63.763		0
			63.892		0
			64.02		0
		END_DATA
	END_SCAN  1
END_SCAN_DATA
