BEGIN_SCAN_DATA
	FORMAT=CC-Export V1.9                  
	FILE_CREATION_DATE=15-Aug-2018 12:43:40
	LAST_MODIFIED=15-Aug-2018 12:43:40
	BEGIN_SCAN  1
		TASK_NAME=tba PDD Profiles
		PROGRAM=tbaScan
		MEAS_DATE=15-Aug-2018 12:41:50
		LINAC=VARIAN PT
		MODALITY=P
		ISOCENTER=2500.00
		INPLANE_AXIS=Inplane
		CROSSPLANE_AXIS=Crossplane
		DEPTH_AXIS=Depth
		INPLANE_AXIS_DIR=GUN_TARGET
		CROSSPLANE_AXIS_DIR=LEFT_RIGHT
		DEPTH_AXIS_DIR=UP_DOWN
		ENERGY=85.00
		NOMINAL_DMAX=52.00
		SSD=2500.00
		SCD=1000.00
		BLOCK=0
		WEDGE_ANGLE=0.00
		FIELD_INPLANE=100.00
		FIELD_CROSSPLANE=100.00
		FIELD_TYPE=RECTANGULAR
		GANTRY=270.00
		GANTRY_UPRIGHT_POSITION=0
		GANTRY_ROTATION=CW
		COLL_ANGLE=0.00
		COLL_OFFSET_INPLANE=0.00
		COLL_OFFSET_CROSSPLANE=0.00
		SCAN_DEVICE=MP3
		SCAN_DEVICE_SETUP=BARA_LEFT_RIGHT
		ELECTROMETER=TANDEM_XDR
		RANGE_FIELD=HIGH
		RANGE_REFERENCE=AUTO
		DETECTOR=PLANE_PARALLEL_CHAMBER
		DETECTOR_RADIUS=0.00
		DETECTOR_NAME=PTW 34070 Bragg-Peak
		DETECTOR_SN=0000
		DETECTOR_CALIBRATION=1100000000.00
		DETECTOR_IS_CALIBRATED=0
		DETECTOR_REFERENCE=PLANE_PARALLEL_CHAMBER
		DETECTOR_REFERENCE_RADIUS=0.00
		DETECTOR_REFERENCE_NAME=PTW 34070 Bragg-Peak
		DETECTOR_REFERENCE_SN=0000
		DETECTOR_REFERENCE_IS_CALIBRATED=0
		DETECTOR_REFERENCE_CALIBRATION=1100000000.00
		DETECTOR_HV=400.0
		DETECTOR_REFERENCE_HV=400.0
		FILTER=FF
		REF_FIELD_DEPTH=0.00
		REF_FIELD_DEFINED=ISOCENTER
		REF_FIELD_INPLANE=40.00
		REF_FIELD_CROSSPLANE=40.00
		REF_SCAN_POSITIONS=0.00;0.50;1.00;1.50;2.00;2.50;3.00;3.50;4.00;4.50;5.00;5.50;6.00;6.50;7.00;7.50;8.00;8.50;9.00;9.50;10.00;10.50;11.00;11.50;12.00;12.50;13.00;13.50;14.00;14.50;15.00;15.50;16.00;16.50;17.00;17.50;18.00;18.50;19.00;19.50;20.00;20.50;21.00;21.50;22.00;22.50;23.00;23.50;24.00;24.50;25.00;25.50;26.00;26.50;27.00;27.50;28.00;28.50;29.00;29.50;30.00;
		SCAN_CURVETYPE=PDD
		SCAN_OFFAXIS_INPLANE=0.00
		SCAN_OFFAXIS_CROSSPLANE=0.00
		SCAN_ANGLE=0.00
		SCAN_DIAGONAL=NOT_DIAGONAL
		SCAN_DIRECTION=NEGATIVE
		MEAS_MEDIUM=WATER
		MEAS_PRESET=REFERENCE_DOSEMETER
		MEAS_TIME=0.100
		MEAS_UNIT=A.U.
		SCAN_SPEEDS=50.00; 1.00;150.00; 16.00;999.00; 50.00;
		DELAY_TIMES=50.00; 0.800;150.00; 0.400;999.90; 0.000;
		PRESSURE=1013.25
		TEMPERATURE=20.00
		NORM_TEMPERATURE=20.00
		CORRECTION_FACTOR=1.0000
		EXPECTED_MAX_DOSE_RATE=8.00
		BEGIN_DATA
			0		0.36
			0.15		0.36
			0.301		0.36
			0.451		0.36
			0.601		0.36
			0.752		0.36
			0.902		0.36
			1.052		0.359
			1.203		0.359
			1.353		0.359
			1.503		0.359
			1.654		0.359
			1.804		0.359
			1.954		0.359
			2.105		0.359
			2.255		0.359
			2.405		0.359
			2.556		0.359
			2.706		0.359
			2.856		0.359
			3.007		0.359
			3.157		0.359
			3.307		0.359
			3.458		0.359
			3.608		0.359
			3.759		0.359
			3.909		0.359
			4.059		0.359
			4.21		0.359
			4.36		0.36
			4.51		0.36
			4.661		0.36
			4.811		0.36
			4.961		0.36
			5.112		0.36
			5.262		0.36
			5.412		0.36
			5.563		0.36
			5.713		0.36
			5.863		0.361
			6.014		0.361
			6.164		0.361
			6.314		0.361
			6.465		0.361
			6.615		0.361
			6.765		0.362
			6.916		0.362
			7.066		0.362
			7.216		0.362
			7.367		0.362
			7.517		0.363
			7.667		0.363
			7.818		0.363
			7.968		0.363
			8.118		0.363
			8.269		0.364
			8.419		0.364
			8.569		0.364
			8.72		0.364
			8.87		0.365
			9.02		0.365
			9.171		0.365
			9.321		0.365
			9.471		0.366
			9.622		0.366
			9.772		0.366
			9.922		0.367
			10.073		0.367
			10.223		0.367
			10.373		0.368
			10.524		0.368
			10.674		0.368
			10.825		0.369
			10.975		0.369
			11.125		0.369
			11.276		0.37
			11.426		0.37
			11.576		0.37
			11.727		0.371
			11.877		0.371
			12.027		0.371
			12.178		0.372
			12.328		0.372
			12.478		0.373
			12.629		0.373
			12.779		0.373
			12.929		0.374
			13.08		0.374
			13.23		0.375
			13.38		0.375
			13.531		0.375
			13.681		0.376
			13.831		0.376
			13.982		0.377
			14.132		0.377
			14.282		0.378
			14.433		0.378
			14.583		0.379
			14.733		0.379
			14.884		0.38
			15.034		0.38
			15.184		0.381
			15.335		0.381
			15.485		0.382
			15.635		0.382
			15.786		0.383
			15.936		0.383
			16.087		0.384
			16.237		0.384
			16.387		0.385
			16.538		0.385
			16.688		0.386
			16.838		0.387
			16.989		0.387
			17.139		0.388
			17.289		0.388
			17.44		0.389
			17.59		0.39
			17.74		0.39
			17.89		0.391
			18.041		0.391
			18.191		0.392
			18.342		0.393
			18.492		0.393
			18.642		0.394
			18.793		0.395
			18.943		0.395
			19.093		0.396
			19.244		0.397
			19.394		0.397
			19.544		0.398
			19.695		0.399
			19.845		0.4
			19.995		0.4
			20.146		0.401
			20.296		0.402
			20.446		0.402
			20.597		0.403
			20.747		0.404
			20.897		0.405
			21.048		0.405
			21.198		0.406
			21.348		0.407
			21.499		0.408
			21.649		0.409
			21.799		0.409
			21.95		0.41
			22.1		0.411
			22.25		0.412
			22.401		0.413
			22.551		0.413
			22.701		0.414
			22.852		0.415
			23.002		0.416
			23.153		0.417
			23.303		0.418
			23.453		0.419
			23.604		0.419
			23.754		0.42
			23.904		0.421
			24.055		0.422
			24.205		0.423
			24.355		0.424
			24.506		0.425
			24.656		0.426
			24.806		0.427
			24.957		0.428
			25.107		0.429
			25.257		0.43
			25.408		0.431
			25.558		0.432
			25.708		0.432
			25.859		0.433
			26.009		0.434
			26.159		0.435
			26.31		0.436
			26.46		0.437
			26.61		0.438
			26.761		0.439
			26.911		0.441
			27.061		0.442
			27.212		0.443
			27.362		0.444
			27.512		0.445
			27.663		0.446
			27.813		0.447
			27.963		0.448
			28.114		0.449
			28.264		0.45
			28.414		0.451
			28.565		0.452
			28.715		0.453
			28.865		0.455
			29.016		0.456
			29.166		0.457
			29.316		0.458
			29.467		0.459
			29.617		0.46
			29.767		0.461
			29.918		0.463
			30.068		0.464
			30.219		0.465
			30.369		0.466
			30.519		0.467
			30.67		0.468
			30.82		0.47
			30.97		0.471
			31.121		0.472
			31.271		0.473
			31.421		0.475
			31.572		0.476
			31.722		0.477
			31.872		0.478
			32.023		0.48
			32.173		0.481
			32.323		0.482
			32.474		0.483
			32.624		0.485
			32.774		0.486
			32.925		0.487
			33.075		0.489
			33.225		0.49
			33.376		0.491
			33.526		0.493
			33.676		0.494
			33.827		0.495
			33.977		0.497
			34.127		0.498
			34.278		0.499
			34.428		0.501
			34.578		0.502
			34.729		0.504
			34.879		0.505
			35.029		0.506
			35.18		0.508
			35.33		0.509
			35.48		0.511
			35.631		0.512
			35.781		0.514
			35.931		0.515
			36.082		0.517
			36.232		0.518
			36.382		0.52
			36.533		0.521
			36.683		0.523
			36.833		0.524
			36.984		0.526
			37.134		0.527
			37.285		0.529
			37.435		0.53
			37.585		0.532
			37.736		0.533
			37.886		0.535
			38.036		0.537
			38.187		0.538
			38.337		0.54
			38.487		0.541
			38.638		0.543
			38.788		0.545
			38.938		0.546
			39.089		0.548
			39.239		0.55
			39.389		0.551
			39.54		0.553
			39.69		0.555
			39.84		0.557
			39.991		0.558
			40.141		0.56
			40.291		0.562
			40.442		0.564
			40.592		0.565
			40.742		0.567
			40.893		0.569
			41.043		0.571
			41.193		0.573
			41.344		0.575
			41.494		0.577
			41.644		0.579
			41.795		0.581
			41.945		0.583
			42.095		0.585
			42.246		0.587
			42.396		0.589
			42.546		0.591
			42.697		0.593
			42.847		0.595
			42.997		0.597
			43.148		0.6
			43.298		0.602
			43.449		0.604
			43.599		0.607
			43.749		0.609
			43.9		0.611
			44.05		0.614
			44.2		0.616
			44.35		0.619
			44.501		0.621
			44.651		0.624
			44.801		0.627
			44.952		0.629
			45.102		0.632
			45.252		0.635
			45.403		0.638
			45.553		0.641
			45.704		0.644
			45.854		0.647
			46.004		0.65
			46.155		0.653
			46.305		0.657
			46.455		0.66
			46.606		0.664
			46.756		0.667
			46.906		0.671
			47.057		0.675
			47.207		0.678
			47.357		0.682
			47.508		0.687
			47.658		0.691
			47.808		0.695
			47.959		0.699
			48.109		0.704
			48.259		0.709
			48.41		0.714
			48.56		0.719
			48.71		0.724
			48.861		0.729
			49.011		0.734
			49.161		0.74
			49.312		0.746
			49.462		0.752
			49.612		0.758
			49.763		0.765
			49.913		0.771
			50.063		0.778
			50.214		0.785
			50.364		0.793
			50.514		0.8
			50.665		0.808
			50.815		0.817
			50.965		0.825
			51.116		0.834
			51.266		0.843
			51.417		0.853
			51.567		0.863
			51.717		0.873
			51.868		0.884
			52.018		0.895
			52.168		0.907
			52.319		0.92
			52.469		0.933
			52.619		0.946
			52.77		0.961
			52.92		0.976
			53.07		0.992
			53.221		1.009
			53.371		1.027
			53.521		1.046
			53.672		1.066
			53.822		1.087
			53.972		1.109
			54.123		1.133
			54.273		1.157
			54.423		1.183
			54.574		1.21
			54.724		1.238
			54.874		1.265
			55.025		1.293
			55.175		1.321
			55.325		1.348
			55.476		1.373
			55.626		1.395
			55.776		1.415
			55.927		1.431
			56.077		1.442
			56.227		1.447
			56.378		1.447
			56.528		1.44
			56.678		1.425
			56.829		1.402
			56.979		1.372
			57.13		1.334
			57.28		1.289
			57.43		1.236
			57.581		1.178
			57.731		1.113
			57.881		1.045
			58.032		0.972
			58.182		0.898
			58.332		0.823
			58.482		0.748
			58.633		0.674
			58.783		0.602
			58.933		0.533
			59.084		0.469
			59.234		0.409
			59.385		0.353
			59.535		0.303
			59.685		0.258
			59.836		0.218
			59.986		0.183
			60.136		0.152
			60.287		0.126
			60.437		0.104
			60.587		0.086
			60.738		0.07
			60.888		0.057
			61.038		0.047
			61.189		0.038
			61.339		0.032
			61.489		0.026
			61.64		0.022
			61.79		0.018
			61.94		0.016
			62.091		0.013
			62.241		0.012
			62.391		0.01
			62.542		0.009
			62.692		0.008
			62.842		0.007
			62.993		0.007
			63.143		0.006
			63.293		0.005
			63.444		0.005
			63.594		0.005
			63.744		0.004
			63.895		0.004
			64.045		0.003
			64.196		0.003
			64.346		0.003
			64.496		0.003
			64.646		0.002
			64.797		0.002
			64.947		0.002
			65.098		0.002
			65.248		0.002
			65.398		0.001
			65.549		0.001
			65.699		0.001
			65.849		0.001
			66		0.001
			66.15		0.001
			66.3		0.001
			66.451		0.001
			66.601		0.001
			66.751		0.001
			66.902		0
			67.052		0
			67.202		0
			67.353		0
			67.503		0
			67.653		0
			67.804		0
			67.954		0
			68.104		0
			68.255		0
			68.405		0
			68.555		0
			68.706		0
			68.856		0
			69.006		0
			69.157		0
			69.307		0
			69.457		0
			69.608		0
			69.758		0
			69.908		0
			70.059		0
			70.209		0
			70.359		0
			70.51		0
			70.66		0
			70.811		0
			70.961		0
			71.111		0
			71.261		0
			71.412		0
			71.562		0
			71.713		0
			71.863		0
			72.013		0
			72.163		0
			72.314		0
			72.464		0
			72.615		0
			72.765		0
			72.915		0
			73.066		0
			73.216		0
			73.366		0
			73.517		0
			73.667		0
			73.817		0
			73.968		0
			74.118		0
			74.268		0
			74.419		0
			74.569		0
			74.719		0
			74.87		0
			75.02		0
		END_DATA
	END_SCAN  1
END_SCAN_DATA
