BEGIN_SCAN_DATA
	FORMAT=CC-Export V1.9                  
	FILE_CREATION_DATE=15-Aug-2018 12:30:23
	LAST_MODIFIED=15-Aug-2018 12:30:23
	BEGIN_SCAN  1
		TASK_NAME=tba PDD Profiles
		PROGRAM=tbaScan
		MEAS_DATE=15-Aug-2018 12:28:22
		LINAC=VARIAN PT
		MODALITY=P
		ISOCENTER=2500.00
		INPLANE_AXIS=Inplane
		CROSSPLANE_AXIS=Crossplane
		DEPTH_AXIS=Depth
		INPLANE_AXIS_DIR=GUN_TARGET
		CROSSPLANE_AXIS_DIR=LEFT_RIGHT
		DEPTH_AXIS_DIR=UP_DOWN
		ENERGY=90.00
		NOMINAL_DMAX=80.00
		SSD=2500.00
		SCD=1000.00
		BLOCK=0
		WEDGE_ANGLE=0.00
		FIELD_INPLANE=100.00
		FIELD_CROSSPLANE=100.00
		FIELD_TYPE=RECTANGULAR
		GANTRY=270.00
		GANTRY_UPRIGHT_POSITION=0
		GANTRY_ROTATION=CW
		COLL_ANGLE=0.00
		COLL_OFFSET_INPLANE=0.00
		COLL_OFFSET_CROSSPLANE=0.00
		SCAN_DEVICE=MP3
		SCAN_DEVICE_SETUP=BARA_LEFT_RIGHT
		ELECTROMETER=TANDEM_XDR
		RANGE_FIELD=HIGH
		RANGE_REFERENCE=AUTO
		DETECTOR=PLANE_PARALLEL_CHAMBER
		DETECTOR_RADIUS=0.00
		DETECTOR_NAME=PTW 34070 Bragg-Peak
		DETECTOR_SN=0000
		DETECTOR_CALIBRATION=1100000000.00
		DETECTOR_IS_CALIBRATED=0
		DETECTOR_REFERENCE=PLANE_PARALLEL_CHAMBER
		DETECTOR_REFERENCE_RADIUS=0.00
		DETECTOR_REFERENCE_NAME=PTW 34070 Bragg-Peak
		DETECTOR_REFERENCE_SN=0000
		DETECTOR_REFERENCE_IS_CALIBRATED=0
		DETECTOR_REFERENCE_CALIBRATION=1100000000.00
		DETECTOR_HV=400.0
		DETECTOR_REFERENCE_HV=400.0
		FILTER=FF
		REF_FIELD_DEPTH=0.00
		REF_FIELD_DEFINED=ISOCENTER
		REF_FIELD_INPLANE=40.00
		REF_FIELD_CROSSPLANE=40.00
		REF_SCAN_POSITIONS=0.00;1.00;2.00;3.00;4.00;5.00;6.00;7.00;8.00;9.00;10.00;11.00;12.00;13.00;14.00;15.00;16.00;17.00;18.00;19.00;20.00;21.00;22.00;23.00;24.00;25.00;26.00;27.00;28.00;29.00;30.00;31.00;32.00;33.00;34.00;35.00;36.00;37.00;38.00;39.00;40.00;41.00;42.00;43.00;44.00;45.00;46.00;47.00;48.00;49.00;50.00;51.00;52.00;53.00;54.00;55.00;56.00;57.00;58.00;59.00;60.00;
		SCAN_CURVETYPE=PDD
		SCAN_OFFAXIS_INPLANE=0.00
		SCAN_OFFAXIS_CROSSPLANE=0.00
		SCAN_ANGLE=0.00
		SCAN_DIAGONAL=NOT_DIAGONAL
		SCAN_DIRECTION=NEGATIVE
		MEAS_MEDIUM=WATER
		MEAS_PRESET=REFERENCE_DOSEMETER
		MEAS_TIME=0.100
		MEAS_UNIT=A.U.
		SCAN_SPEEDS=50.00; 1.00;150.00; 16.00;999.00; 50.00;
		DELAY_TIMES=50.00; 0.800;150.00; 0.400;999.90; 0.000;
		PRESSURE=1013.25
		TEMPERATURE=20.00
		NORM_TEMPERATURE=20.00
		CORRECTION_FACTOR=1.0000
		EXPECTED_MAX_DOSE_RATE=8.00
		BEGIN_DATA
			0		0.361
			0.161		0.361
			0.323		0.36
			0.484		0.36
			0.645		0.36
			0.807		0.36
			0.968		0.36
			1.13		0.36
			1.291		0.36
			1.452		0.36
			1.614		0.36
			1.775		0.36
			1.936		0.36
			2.098		0.36
			2.259		0.36
			2.42		0.36
			2.582		0.36
			2.743		0.359
			2.905		0.359
			3.066		0.359
			3.227		0.359
			3.389		0.36
			3.55		0.36
			3.711		0.36
			3.873		0.36
			4.034		0.36
			4.195		0.36
			4.357		0.36
			4.518		0.36
			4.68		0.36
			4.841		0.36
			5.002		0.36
			5.164		0.36
			5.325		0.36
			5.486		0.36
			5.648		0.36
			5.809		0.36
			5.97		0.361
			6.132		0.361
			6.293		0.361
			6.455		0.361
			6.616		0.361
			6.777		0.361
			6.939		0.361
			7.1		0.362
			7.261		0.362
			7.423		0.362
			7.584		0.362
			7.745		0.362
			7.907		0.362
			8.068		0.363
			8.229		0.363
			8.391		0.363
			8.552		0.363
			8.714		0.363
			8.875		0.364
			9.036		0.364
			9.198		0.364
			9.359		0.364
			9.52		0.364
			9.682		0.365
			9.843		0.365
			10.005		0.365
			10.166		0.365
			10.327		0.366
			10.489		0.366
			10.65		0.366
			10.811		0.366
			10.973		0.367
			11.134		0.367
			11.295		0.367
			11.457		0.368
			11.618		0.368
			11.78		0.368
			11.941		0.369
			12.102		0.369
			12.264		0.369
			12.425		0.369
			12.586		0.37
			12.748		0.37
			12.909		0.37
			13.07		0.371
			13.232		0.371
			13.393		0.372
			13.554		0.372
			13.716		0.372
			13.877		0.373
			14.039		0.373
			14.2		0.373
			14.361		0.374
			14.523		0.374
			14.684		0.375
			14.845		0.375
			15.007		0.375
			15.168		0.376
			15.33		0.376
			15.491		0.377
			15.652		0.377
			15.814		0.378
			15.975		0.378
			16.136		0.378
			16.298		0.379
			16.459		0.379
			16.62		0.38
			16.782		0.38
			16.943		0.381
			17.104		0.381
			17.266		0.382
			17.427		0.382
			17.588		0.383
			17.75		0.383
			17.911		0.384
			18.073		0.384
			18.234		0.385
			18.395		0.385
			18.557		0.386
			18.718		0.386
			18.879		0.387
			19.041		0.388
			19.202		0.388
			19.364		0.389
			19.525		0.389
			19.686		0.39
			19.848		0.39
			20.009		0.391
			20.17		0.392
			20.332		0.392
			20.493		0.393
			20.654		0.393
			20.816		0.394
			20.977		0.395
			21.139		0.395
			21.3		0.396
			21.461		0.397
			21.623		0.397
			21.784		0.398
			21.945		0.399
			22.107		0.399
			22.268		0.4
			22.429		0.401
			22.591		0.401
			22.752		0.402
			22.913		0.403
			23.075		0.404
			23.236		0.404
			23.398		0.405
			23.559		0.406
			23.72		0.406
			23.882		0.407
			24.043		0.408
			24.204		0.409
			24.366		0.409
			24.527		0.41
			24.688		0.411
			24.85		0.412
			25.011		0.413
			25.173		0.413
			25.334		0.414
			25.495		0.415
			25.657		0.416
			25.818		0.417
			25.979		0.417
			26.141		0.418
			26.302		0.419
			26.463		0.42
			26.625		0.421
			26.786		0.422
			26.948		0.423
			27.109		0.423
			27.27		0.424
			27.432		0.425
			27.593		0.426
			27.754		0.427
			27.916		0.428
			28.077		0.429
			28.239		0.43
			28.4		0.431
			28.561		0.432
			28.723		0.432
			28.884		0.433
			29.045		0.434
			29.207		0.435
			29.368		0.436
			29.529		0.437
			29.691		0.438
			29.852		0.439
			30.014		0.44
			30.175		0.441
			30.336		0.442
			30.498		0.443
			30.659		0.444
			30.82		0.445
			30.982		0.446
			31.143		0.447
			31.304		0.448
			31.466		0.449
			31.627		0.45
			31.788		0.451
			31.95		0.453
			32.111		0.454
			32.272		0.455
			32.434		0.456
			32.595		0.457
			32.757		0.458
			32.918		0.459
			33.079		0.46
			33.241		0.461
			33.402		0.462
			33.563		0.463
			33.725		0.465
			33.886		0.466
			34.048		0.467
			34.209		0.468
			34.37		0.469
			34.532		0.47
			34.693		0.472
			34.854		0.473
			35.016		0.474
			35.177		0.475
			35.338		0.476
			35.5		0.477
			35.661		0.479
			35.822		0.48
			35.984		0.481
			36.145		0.482
			36.307		0.484
			36.468		0.485
			36.629		0.486
			36.791		0.487
			36.952		0.489
			37.113		0.49
			37.275		0.491
			37.436		0.492
			37.597		0.494
			37.759		0.495
			37.92		0.496
			38.082		0.498
			38.243		0.499
			38.404		0.5
			38.566		0.502
			38.727		0.503
			38.888		0.504
			39.05		0.506
			39.211		0.507
			39.373		0.508
			39.534		0.51
			39.695		0.511
			39.857		0.513
			40.018		0.514
			40.179		0.515
			40.341		0.517
			40.502		0.518
			40.663		0.52
			40.825		0.521
			40.986		0.522
			41.147		0.524
			41.309		0.525
			41.47		0.527
			41.632		0.528
			41.793		0.53
			41.954		0.531
			42.116		0.533
			42.277		0.534
			42.438		0.536
			42.6		0.537
			42.761		0.539
			42.923		0.541
			43.084		0.542
			43.245		0.544
			43.407		0.545
			43.568		0.547
			43.729		0.548
			43.891		0.55
			44.052		0.552
			44.213		0.553
			44.375		0.555
			44.536		0.557
			44.697		0.558
			44.859		0.56
			45.02		0.562
			45.182		0.564
			45.343		0.565
			45.504		0.567
			45.666		0.569
			45.827		0.571
			45.988		0.572
			46.15		0.574
			46.311		0.576
			46.472		0.578
			46.634		0.58
			46.795		0.582
			46.957		0.584
			47.118		0.586
			47.279		0.588
			47.441		0.59
			47.602		0.592
			47.763		0.594
			47.925		0.596
			48.086		0.598
			48.248		0.6
			48.409		0.603
			48.57		0.605
			48.731		0.607
			48.893		0.609
			49.054		0.612
			49.216		0.614
			49.377		0.617
			49.538		0.619
			49.7		0.622
			49.861		0.624
			50.022		0.627
			50.184		0.63
			50.345		0.632
			50.507		0.635
			50.668		0.638
			50.829		0.641
			50.991		0.644
			51.152		0.647
			51.313		0.65
			51.475		0.653
			51.636		0.657
			51.797		0.66
			51.959		0.664
			52.12		0.667
			52.282		0.671
			52.443		0.675
			52.604		0.678
			52.766		0.682
			52.927		0.686
			53.088		0.691
			53.25		0.695
			53.411		0.699
			53.572		0.704
			53.734		0.709
			53.895		0.714
			54.056		0.719
			54.218		0.724
			54.379		0.729
			54.541		0.734
			54.702		0.74
			54.863		0.746
			55.025		0.752
			55.186		0.758
			55.347		0.765
			55.509		0.771
			55.67		0.778
			55.832		0.786
			55.993		0.793
			56.154		0.801
			56.316		0.809
			56.477		0.817
			56.638		0.825
			56.8		0.834
			56.961		0.843
			57.122		0.853
			57.284		0.863
			57.445		0.873
			57.606		0.884
			57.768		0.895
			57.929		0.907
			58.091		0.919
			58.252		0.932
			58.413		0.945
			58.575		0.959
			58.736		0.974
			58.897		0.989
			59.059		1.006
			59.22		1.023
			59.382		1.041
			59.543		1.06
			59.704		1.081
			59.866		1.102
			60.027		1.125
			60.188		1.149
			60.35		1.173
			60.511		1.199
			60.672		1.226
			60.834		1.252
			60.995		1.279
			61.157		1.306
			61.318		1.332
			61.479		1.357
			61.641		1.379
			61.802		1.399
			61.963		1.416
			62.125		1.428
			62.286		1.435
			62.447		1.437
			62.609		1.432
			62.77		1.421
			62.931		1.402
			63.093		1.376
			63.254		1.342
			63.416		1.301
			63.577		1.253
			63.738		1.199
			63.9		1.139
			64.061		1.074
			64.222		1.005
			64.384		0.934
			64.545		0.861
			64.706		0.787
			64.868		0.714
			65.029		0.643
			65.19		0.574
			65.352		0.508
			65.513		0.447
			65.675		0.389
			65.836		0.337
			65.997		0.289
			66.159		0.246
			66.32		0.208
			66.481		0.175
			66.643		0.146
			66.804		0.122
			66.965		0.1
			67.127		0.083
			67.288		0.068
			67.45		0.056
			67.611		0.046
			67.772		0.038
			67.934		0.031
			68.095		0.026
			68.256		0.021
			68.418		0.018
			68.579		0.015
			68.741		0.013
			68.902		0.011
			69.063		0.01
			69.225		0.009
			69.386		0.008
			69.547		0.007
			69.709		0.006
			69.87		0.006
			70.031		0.005
			70.193		0.005
			70.354		0.004
			70.516		0.004
			70.677		0.003
			70.838		0.003
			71		0.003
			71.161		0.002
			71.322		0.002
			71.484		0.002
			71.645		0.002
			71.806		0.002
			71.968		0.001
			72.129		0.001
			72.29		0.001
			72.452		0.001
			72.613		0.001
			72.775		0.001
			72.936		0.001
			73.097		0.001
			73.259		0.001
			73.42		0
			73.581		0
			73.743		0
			73.904		0
			74.065		0
			74.227		0
			74.388		0
			74.55		0
			74.711		0
			74.872		0
			75.034		0
			75.195		0
			75.356		0
			75.518		0
			75.679		0
			75.84		0
			76.002		0
			76.163		0
			76.325		0
			76.486		0
			76.647		0
			76.809		0
			76.97		0
			77.131		0
			77.293		0
			77.454		0
			77.616		0
			77.777		0
			77.938		0
			78.1		0
			78.261		0
			78.422		0
			78.584		0
			78.745		0
			78.906		0
			79.068		0
			79.229		0
			79.391		0
			79.552		0
			79.713		0
			79.874		0
			80.036		0
			80.197		0
			80.359		0
			80.52		0
		END_DATA
	END_SCAN  1
END_SCAN_DATA
