BEGIN_SCAN_DATA
	FORMAT=CC-Export V1.9                  
	FILE_CREATION_DATE=15-Aug-2018 12:30:23
	LAST_MODIFIED=15-Aug-2018 12:30:23
	BEGIN_SCAN  1
		TASK_NAME=tba PDD Profiles
		PROGRAM=tbaScan
		MEAS_DATE=15-Aug-2018 12:28:22
		LINAC=VARIAN PT
		MODALITY=P
		ISOCENTER=2500.00
		INPLANE_AXIS=Inplane
		CROSSPLANE_AXIS=Crossplane
		DEPTH_AXIS=Depth
		INPLANE_AXIS_DIR=GUN_TARGET
		CROSSPLANE_AXIS_DIR=LEFT_RIGHT
		DEPTH_AXIS_DIR=UP_DOWN
		ENERGY=95.00
		NOMINAL_DMAX=80.00
		SSD=2500.00
		SCD=1000.00
		BLOCK=0
		WEDGE_ANGLE=0.00
		FIELD_INPLANE=100.00
		FIELD_CROSSPLANE=100.00
		FIELD_TYPE=RECTANGULAR
		GANTRY=270.00
		GANTRY_UPRIGHT_POSITION=0
		GANTRY_ROTATION=CW
		COLL_ANGLE=0.00
		COLL_OFFSET_INPLANE=0.00
		COLL_OFFSET_CROSSPLANE=0.00
		SCAN_DEVICE=MP3
		SCAN_DEVICE_SETUP=BARA_LEFT_RIGHT
		ELECTROMETER=TANDEM_XDR
		RANGE_FIELD=HIGH
		RANGE_REFERENCE=AUTO
		DETECTOR=PLANE_PARALLEL_CHAMBER
		DETECTOR_RADIUS=0.00
		DETECTOR_NAME=PTW 34070 Bragg-Peak
		DETECTOR_SN=0000
		DETECTOR_CALIBRATION=1100000000.00
		DETECTOR_IS_CALIBRATED=0
		DETECTOR_REFERENCE=PLANE_PARALLEL_CHAMBER
		DETECTOR_REFERENCE_RADIUS=0.00
		DETECTOR_REFERENCE_NAME=PTW 34070 Bragg-Peak
		DETECTOR_REFERENCE_SN=0000
		DETECTOR_REFERENCE_IS_CALIBRATED=0
		DETECTOR_REFERENCE_CALIBRATION=1100000000.00
		DETECTOR_HV=400.0
		DETECTOR_REFERENCE_HV=400.0
		FILTER=FF
		REF_FIELD_DEPTH=0.00
		REF_FIELD_DEFINED=ISOCENTER
		REF_FIELD_INPLANE=40.00
		REF_FIELD_CROSSPLANE=40.00
		REF_SCAN_POSITIONS=0.00;1.00;2.00;3.00;4.00;5.00;6.00;7.00;8.00;9.00;10.00;11.00;12.00;13.00;14.00;15.00;16.00;17.00;18.00;19.00;20.00;21.00;22.00;23.00;24.00;25.00;26.00;27.00;28.00;29.00;30.00;31.00;32.00;33.00;34.00;35.00;36.00;37.00;38.00;39.00;40.00;41.00;42.00;43.00;44.00;45.00;46.00;47.00;48.00;49.00;50.00;51.00;52.00;53.00;54.00;55.00;56.00;57.00;58.00;59.00;60.00;
		SCAN_CURVETYPE=PDD
		SCAN_OFFAXIS_INPLANE=0.00
		SCAN_OFFAXIS_CROSSPLANE=0.00
		SCAN_ANGLE=0.00
		SCAN_DIAGONAL=NOT_DIAGONAL
		SCAN_DIRECTION=NEGATIVE
		MEAS_MEDIUM=WATER
		MEAS_PRESET=REFERENCE_DOSEMETER
		MEAS_TIME=0.100
		MEAS_UNIT=A.U.
		SCAN_SPEEDS=50.00; 1.00;150.00; 16.00;999.00; 50.00;
		DELAY_TIMES=50.00; 0.800;150.00; 0.400;999.90; 0.000;
		PRESSURE=1013.25
		TEMPERATURE=20.00
		NORM_TEMPERATURE=20.00
		CORRECTION_FACTOR=1.0000
		EXPECTED_MAX_DOSE_RATE=8.00
		BEGIN_DATA
			0		0.361
			0.183		0.361
			0.367		0.361
			0.55		0.361
			0.734		0.361
			0.917		0.361
			1.1		0.361
			1.284		0.36
			1.467		0.36
			1.651		0.36
			1.834		0.36
			2.017		0.36
			2.201		0.36
			2.384		0.36
			2.568		0.36
			2.751		0.36
			2.935		0.36
			3.118		0.36
			3.301		0.36
			3.485		0.36
			3.668		0.36
			3.852		0.36
			4.035		0.36
			4.218		0.36
			4.402		0.36
			4.585		0.36
			4.769		0.36
			4.952		0.36
			5.135		0.36
			5.319		0.36
			5.502		0.36
			5.686		0.36
			5.869		0.361
			6.052		0.361
			6.236		0.361
			6.419		0.361
			6.603		0.361
			6.786		0.361
			6.969		0.361
			7.153		0.361
			7.336		0.361
			7.52		0.362
			7.703		0.362
			7.886		0.362
			8.07		0.362
			8.253		0.362
			8.437		0.362
			8.62		0.362
			8.804		0.363
			8.987		0.363
			9.17		0.363
			9.354		0.363
			9.537		0.363
			9.721		0.364
			9.904		0.364
			10.087		0.364
			10.271		0.364
			10.454		0.365
			10.638		0.365
			10.821		0.365
			11.004		0.365
			11.188		0.365
			11.371		0.366
			11.555		0.366
			11.738		0.366
			11.921		0.367
			12.105		0.367
			12.288		0.367
			12.472		0.367
			12.655		0.368
			12.839		0.368
			13.022		0.368
			13.205		0.369
			13.389		0.369
			13.572		0.369
			13.755		0.37
			13.939		0.37
			14.122		0.37
			14.306		0.371
			14.489		0.371
			14.672		0.371
			14.856		0.372
			15.039		0.372
			15.223		0.372
			15.406		0.373
			15.59		0.373
			15.773		0.373
			15.956		0.374
			16.14		0.374
			16.323		0.375
			16.507		0.375
			16.69		0.375
			16.873		0.376
			17.057		0.376
			17.24		0.377
			17.424		0.377
			17.607		0.378
			17.791		0.378
			17.974		0.379
			18.157		0.379
			18.341		0.379
			18.524		0.38
			18.708		0.38
			18.891		0.381
			19.074		0.381
			19.258		0.382
			19.441		0.382
			19.625		0.383
			19.808		0.383
			19.991		0.384
			20.175		0.385
			20.358		0.385
			20.542		0.386
			20.725		0.386
			20.908		0.387
			21.092		0.387
			21.275		0.388
			21.459		0.388
			21.642		0.389
			21.825		0.39
			22.009		0.39
			22.192		0.391
			22.376		0.391
			22.559		0.392
			22.742		0.393
			22.926		0.393
			23.109		0.394
			23.293		0.395
			23.476		0.395
			23.66		0.396
			23.843		0.397
			24.026		0.397
			24.21		0.398
			24.393		0.399
			24.576		0.399
			24.76		0.4
			24.943		0.401
			25.127		0.401
			25.31		0.402
			25.493		0.403
			25.677		0.404
			25.86		0.404
			26.044		0.405
			26.227		0.406
			26.411		0.407
			26.594		0.407
			26.777		0.408
			26.961		0.409
			27.144		0.41
			27.328		0.41
			27.511		0.411
			27.694		0.412
			27.878		0.413
			28.061		0.414
			28.245		0.415
			28.428		0.415
			28.611		0.416
			28.795		0.417
			28.978		0.418
			29.162		0.419
			29.345		0.42
			29.528		0.42
			29.712		0.421
			29.895		0.422
			30.079		0.423
			30.262		0.424
			30.445		0.425
			30.629		0.426
			30.812		0.427
			30.996		0.428
			31.179		0.429
			31.363		0.43
			31.546		0.43
			31.729		0.431
			31.913		0.432
			32.096		0.433
			32.28		0.434
			32.463		0.435
			32.646		0.436
			32.83		0.437
			33.013		0.438
			33.197		0.439
			33.38		0.44
			33.563		0.441
			33.747		0.442
			33.93		0.443
			34.114		0.444
			34.297		0.445
			34.48		0.447
			34.664		0.448
			34.847		0.449
			35.031		0.45
			35.214		0.451
			35.397		0.452
			35.581		0.453
			35.764		0.454
			35.948		0.455
			36.131		0.456
			36.314		0.457
			36.498		0.459
			36.681		0.46
			36.865		0.461
			37.048		0.462
			37.232		0.463
			37.415		0.464
			37.598		0.465
			37.782		0.467
			37.965		0.468
			38.149		0.469
			38.332		0.47
			38.515		0.471
			38.699		0.473
			38.882		0.474
			39.066		0.475
			39.249		0.476
			39.432		0.477
			39.616		0.479
			39.799		0.48
			39.983		0.481
			40.166		0.483
			40.349		0.484
			40.533		0.485
			40.716		0.486
			40.9		0.488
			41.083		0.489
			41.266		0.49
			41.45		0.492
			41.633		0.493
			41.817		0.494
			42		0.496
			42.184		0.497
			42.367		0.498
			42.55		0.5
			42.734		0.501
			42.917		0.502
			43.101		0.504
			43.284		0.505
			43.467		0.506
			43.651		0.508
			43.834		0.509
			44.018		0.511
			44.201		0.512
			44.384		0.514
			44.568		0.515
			44.751		0.516
			44.935		0.518
			45.118		0.519
			45.301		0.521
			45.485		0.522
			45.668		0.524
			45.852		0.525
			46.035		0.527
			46.218		0.528
			46.402		0.53
			46.585		0.531
			46.769		0.533
			46.952		0.534
			47.136		0.536
			47.319		0.538
			47.502		0.539
			47.686		0.541
			47.869		0.542
			48.053		0.544
			48.236		0.546
			48.419		0.547
			48.603		0.549
			48.786		0.551
			48.97		0.552
			49.153		0.554
			49.336		0.556
			49.52		0.557
			49.703		0.559
			49.887		0.561
			50.07		0.563
			50.254		0.565
			50.437		0.566
			50.62		0.568
			50.804		0.57
			50.987		0.572
			51.171		0.574
			51.354		0.576
			51.537		0.578
			51.721		0.58
			51.904		0.582
			52.088		0.584
			52.271		0.586
			52.454		0.588
			52.638		0.59
			52.821		0.592
			53.005		0.594
			53.188		0.596
			53.371		0.599
			53.555		0.601
			53.738		0.603
			53.922		0.605
			54.105		0.608
			54.288		0.61
			54.472		0.613
			54.655		0.615
			54.839		0.618
			55.022		0.62
			55.206		0.623
			55.389		0.626
			55.572		0.629
			55.756		0.631
			55.939		0.634
			56.123		0.637
			56.306		0.64
			56.489		0.643
			56.673		0.647
			56.856		0.65
			57.04		0.653
			57.223		0.657
			57.406		0.66
			57.59		0.664
			57.773		0.668
			57.957		0.672
			58.14		0.676
			58.323		0.68
			58.507		0.684
			58.69		0.688
			58.874		0.693
			59.057		0.698
			59.24		0.702
			59.424		0.707
			59.607		0.713
			59.791		0.718
			59.974		0.723
			60.157		0.729
			60.341		0.735
			60.524		0.741
			60.708		0.747
			60.891		0.754
			61.075		0.76
			61.258		0.767
			61.441		0.774
			61.625		0.782
			61.808		0.79
			61.992		0.798
			62.175		0.806
			62.358		0.815
			62.542		0.824
			62.725		0.833
			62.909		0.843
			63.092		0.853
			63.275		0.863
			63.459		0.874
			63.642		0.885
			63.826		0.897
			64.009		0.91
			64.192		0.923
			64.376		0.936
			64.559		0.95
			64.743		0.965
			64.926		0.981
			65.109		0.998
			65.293		1.015
			65.476		1.034
			65.66		1.054
			65.843		1.074
			66.026		1.096
			66.21		1.12
			66.393		1.144
			66.577		1.169
			66.76		1.196
			66.943		1.223
			67.127		1.25
			67.31		1.278
			67.494		1.305
			67.677		1.332
			67.86		1.356
			68.044		1.378
			68.227		1.397
			68.411		1.412
			68.594		1.422
			68.778		1.426
			68.961		1.424
			69.144		1.414
			69.328		1.397
			69.511		1.372
			69.695		1.339
			69.878		1.298
			70.061		1.25
			70.245		1.194
			70.428		1.132
			70.612		1.065
			70.795		0.994
			70.978		0.92
			71.162		0.845
			71.345		0.768
			71.529		0.693
			71.712		0.62
			71.896		0.55
			72.079		0.483
			72.262		0.421
			72.446		0.363
			72.629		0.311
			72.813		0.264
			72.996		0.223
			73.179		0.187
			73.363		0.155
			73.546		0.128
			73.729		0.105
			73.913		0.086
			74.096		0.07
			74.28		0.057
			74.463		0.046
			74.647		0.038
			74.83		0.031
			75.013		0.025
			75.197		0.021
			75.38		0.017
			75.564		0.014
			75.747		0.012
			75.93		0.01
			76.114		0.009
			76.297		0.008
			76.481		0.007
			76.664		0.006
			76.848		0.005
			77.031		0.005
			77.214		0.004
			77.398		0.004
			77.581		0.003
			77.765		0.003
			77.948		0.003
			78.131		0.002
			78.315		0.002
			78.498		0.002
			78.682		0.002
			78.865		0.001
			79.048		0.001
			79.232		0.001
			79.415		0.001
			79.599		0.001
			79.782		0.001
			79.965		0.001
			80.149		0.001
			80.332		0
			80.516		0
			80.699		0
			80.882		0
			81.066		0
			81.249		0
			81.433		0
			81.616		0
			81.799		0
			81.983		0
			82.166		0
			82.35		0
			82.533		0
			82.716		0
			82.9		0
			83.083		0
			83.267		0
			83.45		0
			83.633		0
			83.817		0
			84		0
			84.184		0
			84.367		0
			84.55		0
			84.734		0
			84.917		0
			85.101		0
			85.284		0
			85.468		0
			85.651		0
			85.834		0
			86.018		0
			86.201		0
			86.385		0
			86.568		0
			86.751		0
			86.935		0
			87.118		0
			87.302		0
			87.485		0
			87.669		0
			87.852		0
			88.035		0
			88.219		0
			88.402		0
			88.586		0
			88.769		0
			88.952		0
			89.136		0
			89.319		0
			89.503		0
			89.686		0
			89.869		0
			90.053		0
			90.236		0
			90.42		0
			90.603		0
			90.786		0
			90.97		0
			91.153		0
			91.337		0
			91.52		0
		END_DATA
	END_SCAN  1
END_SCAN_DATA
